rms,mav,zc,wl,std,c_rms,c_mav,c_zc,c_wl,c_std,mean,median,min,max,ptp,q25,q75,iemg
518.2678265144384,518.02,16.0,712.0,16.025592032745624,16.025592032745624,12.94,16.0,712.0,16.025592032745624,518.02,518.5,490.0,556.0,66.0,505.25,531.0,647.0
506.741413346097,506.02,15.0,804.0,27.02997595263451,27.02997595263451,19.3376,15.0,804.0,27.02997595263451,506.02,508.0,428.0,571.0,143.0,497.0,520.75,966.88
506.06521318897234,505.5102040816327,25.0,1174.0,23.69458945299761,23.69458945299761,18.927946688879636,25.0,1174.0,23.69458945299761,505.5102040816327,507.0,455.0,577.0,122.0,485.0,520.0,927.469387755102
489.79865250937553,487.52,17.0,1746.0,47.19077876026205,47.19077876026205,32.6992,17.0,1746.0,47.19077876026205,487.52,489.0,379.0,656.0,277.0,467.0,504.75,1634.96
504.7081731060039,504.54,25.0,804.0,13.027985262503178,13.027985262503178,11.063200000000002,25.0,804.0,13.027985262503178,504.54,502.5,479.0,534.0,55.0,494.25,516.75,553.1600000000001
522.5210809144451,522.32,10.0,520.0,14.494743874936182,14.494743874936182,11.96,10.0,520.0,14.494743874936184,522.32,522.5,492.0,555.0,63.0,512.25,533.0,598.0
496.8414636481138,496.6,13.0,611.0,15.488059917239472,15.488059917239472,12.304,13.0,611.0,15.488059917239474,496.6,494.5,472.0,534.0,62.0,485.5,503.75,615.2
505.8613446390226,505.74,28.0,658.0,11.079368213034533,11.079368213034533,8.679200000000002,28.0,658.0,11.079368213034533,505.74,505.0,486.0,538.0,52.0,497.25,511.0,433.96
527.740163337982,527.2,15.0,961.0,23.871321706181245,23.871321706181245,19.296000000000003,15.0,961.0,23.871321706181245,527.2,525.5,473.0,579.0,106.0,511.5,543.75,964.8000000000002
512.4615692908103,512.34,24.0,582.0,11.161738215887343,11.161738215887343,8.873600000000001,24.0,582.0,11.161738215887343,512.34,511.0,485.0,544.0,59.0,505.0,518.75,443.68000000000006
545.4066189550691,542.78,9.0,1421.0,53.46261871625819,53.46261871625819,42.9224,9.0,1421.0,53.46261871625819,542.78,533.0,418.0,707.0,289.0,501.75,572.5,2146.12
489.0604666091914,488.74,29.0,1015.0,17.70176262410046,17.70176262410046,13.9904,29.0,1015.0,17.70176262410046,488.74,489.5,451.0,537.0,86.0,479.25,501.25,699.52
519.1807392421256,519.08,23.0,563.0,10.22710125108772,10.22710125108772,8.243200000000002,23.0,563.0,10.22710125108772,519.08,518.5,490.0,536.0,46.0,512.25,525.0,412.1600000000001
506.2249842647808,503.8979591836735,5.0,1312.0,48.482795138136346,48.482795138136346,40.88796334860474,5.0,1312.0,48.482795138136346,503.8979591836735,511.0,396.0,591.0,195.0,469.0,541.0,2003.5102040816323
506.3674357618192,505.98,17.0,907.0,19.804534834224203,19.804534834224203,16.499200000000002,17.0,907.0,19.804534834224206,505.98,502.0,465.0,552.0,87.0,492.25,519.75,824.96
521.3192057518256,520.8979591836735,23.0,1221.0,20.953052379029028,20.953052379029028,17.332778009162848,23.0,1221.0,20.953052379029028,520.8979591836735,525.0,469.0,567.0,98.0,505.0,535.0,849.3061224489795
464.9228323066098,464.88,19.0,260.0,6.310752728478592,6.310752728478592,4.7296000000000005,19.0,260.0,6.310752728478592,464.88,465.0,452.0,483.0,31.0,460.25,468.0,236.48
502.81933137062265,502.6,26.0,856.0,14.849915824677256,14.849915824677256,11.968000000000002,26.0,856.0,14.849915824677256,502.6,502.0,480.0,547.0,67.0,491.0,512.0,598.4000000000001
515.3192990758254,514.78,28.0,1280.0,23.569717859999933,23.569717859999933,18.82,28.0,1280.0,23.569717859999933,514.78,514.5,450.0,558.0,108.0,498.25,531.0,941.0
513.4903699194367,512.96,27.0,1459.0,23.33234664580484,23.33234664580484,19.1216,27.0,1459.0,23.332346645804837,512.96,514.0,469.0,565.0,96.0,496.25,527.0,956.08
493.1905514098988,493.08,28.0,625.0,10.44191553308108,10.44191553308108,8.473600000000001,28.0,625.0,10.441915533081085,493.08,495.0,473.0,522.0,49.0,485.25,499.75,423.68000000000006
530.3702668890857,528.62,15.0,1490.0,43.05247495789296,43.05247495789296,36.2296,15.0,1490.0,43.05247495789296,528.62,526.0,440.0,624.0,184.0,496.25,561.25,1811.48
495.88235108990216,495.7959183673469,28.0,555.0,9.258156011216812,9.258156011216812,7.285297792586421,28.0,555.0,9.258156011216812,495.7959183673469,494.0,479.0,518.0,39.0,490.0,501.0,356.97959183673464
515.8203757123209,515.1,27.0,1570.0,27.251605457293703,27.251605457293703,21.868,27.0,1570.0,27.251605457293707,515.1,513.5,457.0,587.0,130.0,494.25,530.75,1093.4
503.73205138430166,502.265306122449,20.0,1921.0,38.41278247614133,38.41278247614133,29.119533527696795,20.0,1921.0,38.41278247614133,502.265306122449,494.0,431.0,619.0,188.0,482.0,523.0,1426.857142857143
520.6034575375004,520.44,31.0,838.0,13.044784398371636,13.044784398371636,10.315200000000004,31.0,838.0,13.044784398371634,520.44,519.0,494.0,549.0,55.0,512.5,527.0,515.7600000000002
515.067626627805,513.9,20.0,1740.0,34.66193878016635,34.66193878016635,26.616000000000003,20.0,1740.0,34.66193878016635,513.9,513.0,438.0,626.0,188.0,492.25,529.75,1330.8000000000002
499.298507908846,499.0,7.0,587.0,17.26267650163207,17.26267650163207,14.0,7.0,587.0,17.26267650163207,499.0,495.0,464.0,539.0,75.0,487.25,512.75,700.0
477.93240107780935,477.7,24.0,773.0,14.902684321960256,14.902684321960256,11.62,24.0,773.0,14.902684321960256,477.7,477.5,434.0,512.0,78.0,470.0,486.0,581.0
538.4515762814702,537.66,11.0,1054.0,29.186030905212167,29.186030905212167,24.9128,11.0,1054.0,29.186030905212167,537.66,530.0,485.0,614.0,129.0,516.25,557.75,1245.64
540.5785390327155,540.4509803921569,23.0,466.0,11.74285552587514,11.74285552587514,8.89504036908881,23.0,466.0,11.74285552587514,540.4509803921569,541.0,512.0,570.0,58.0,532.5,547.0,453.6470588235293
505.3631763395509,504.46,23.0,1544.0,30.200139072527463,30.200139072527463,22.718400000000003,23.0,1544.0,30.200139072527467,504.46,503.5,419.0,600.0,181.0,490.25,521.75,1135.92
499.2782190322346,499.14,23.0,666.0,11.747357149589009,11.747357149589009,9.002399999999998,23.0,666.0,11.747357149589009,499.14,497.0,476.0,531.0,55.0,492.0,503.75,450.1199999999999
526.2305388325539,525.78,24.0,1179.0,21.77088881970601,21.77088881970601,17.317600000000002,24.0,1179.0,21.77088881970601,525.78,527.0,475.0,570.0,95.0,513.0,540.5,865.8800000000001
501.53806293384014,501.0,19.0,1106.0,23.2256016376018,23.2256016376018,19.387755102040817,19.0,1106.0,23.2256016376018,501.0,499.0,468.0,554.0,86.0,482.0,517.0,950.0
523.0719453383063,522.06,14.0,1171.0,32.521014744315714,32.521014744315714,24.57040000000001,14.0,1171.0,32.521014744315714,522.06,527.0,413.0,577.0,164.0,507.25,545.5,1228.5200000000004
536.3190468368618,533.0,6.0,1130.0,59.574491185405854,59.574491185405854,49.52,6.0,1130.0,59.574491185405854,533.0,510.0,431.0,655.0,224.0,493.75,567.25,2476.0
517.8806040005746,517.76,18.0,582.0,11.175974230464206,11.175974230464206,9.2592,18.0,582.0,11.175974230464206,517.76,518.5,495.0,538.0,43.0,509.0,526.75,462.96
520.7402423473723,520.44,20.0,792.0,17.680678720003936,17.680678720003936,13.537600000000005,20.0,792.0,17.680678720003936,520.44,520.0,485.0,574.0,89.0,509.0,530.75,676.8800000000001
488.783387606412,486.72,1.0,680.0,44.86470327551493,44.86470327551493,40.1328,1.0,680.0,44.86470327551493,486.72,468.0,425.0,572.0,147.0,450.5,536.0,2006.6400000000003
513.9806027468352,513.42,26.0,1502.0,23.99924165468568,23.99924165468568,19.6368,26.0,1502.0,23.999241654685672,513.42,512.0,469.0,565.0,96.0,496.25,527.75,981.84
500.457550647405,499.72,21.0,1470.0,27.16029454921283,27.16029454921283,21.7264,21.0,1470.0,27.16029454921283,499.72,494.5,450.0,569.0,119.0,479.0,518.0,1086.3200000000002
493.2300071974535,492.88,21.0,1021.0,18.57809462781369,18.57809462781369,15.4592,21.0,1021.0,18.57809462781369,492.88,496.5,451.0,528.0,77.0,479.25,506.5,772.96
533.3300666566624,533.2,24.0,606.0,11.777945491468364,11.777945491468364,9.360000000000008,24.0,606.0,11.777945491468364,533.2,530.5,506.0,562.0,56.0,526.0,542.0,468.00000000000045
482.9875153665983,482.66,27.0,1050.0,17.783824110691153,17.783824110691153,14.112800000000002,27.0,1050.0,17.783824110691153,482.66,481.5,446.0,523.0,77.0,469.25,491.75,705.6400000000001
546.7838329724096,524.84,8.0,2717.0,153.34775642310518,153.34775642310518,103.17759999999998,8.0,2717.0,153.34775642310518,524.84,563.5,0.0,772.0,772.0,504.0,586.75,5158.879999999999
510.13506054769454,509.94,23.0,804.0,14.10589947504235,14.10589947504235,11.137600000000004,23.0,804.0,14.105899475042348,509.94,507.5,469.0,543.0,74.0,501.0,520.5,556.8800000000001
587.31485593334,587.02,24.0,991.0,18.60805202056357,18.60805202056357,14.6208,24.0,991.0,18.608052020563573,587.02,586.0,533.0,626.0,93.0,577.0,602.5,731.04
532.6656174374314,521.42,9.0,2360.0,108.87535809355576,108.87535809355576,81.65359999999998,9.0,2360.0,108.87535809355576,521.42,515.5,271.0,797.0,526.0,455.25,561.75,4082.68
497.9167400278886,496.0,9.0,1441.0,43.64722213383115,43.64722213383115,35.76,9.0,1441.0,43.64722213383115,496.0,494.5,396.0,591.0,195.0,463.0,530.0,1788.0
513.7418223193436,513.58,26.0,748.0,12.89354877448408,12.89354877448408,10.11920000000001,26.0,748.0,12.893548774484085,513.58,511.0,493.0,548.0,55.0,506.0,521.75,505.9600000000005
499.1823514508501,499.06,22.0,638.0,11.051533830197508,11.051533830197508,9.1048,22.0,638.0,11.051533830197508,499.06,497.5,480.0,524.0,44.0,492.0,506.0,455.24
540.6981043059056,540.36,21.0,1039.0,19.118326286576448,19.118326286576448,16.0656,21.0,1039.0,19.118326286576448,540.36,543.0,507.0,581.0,74.0,525.25,553.5,803.28
553.4783516220718,553.3877551020408,17.0,392.0,10.01390120829104,10.01390120829104,8.209912536443145,17.0,392.0,10.01390120829104,553.3877551020408,555.0,524.0,572.0,48.0,546.0,562.0,402.2857142857141
542.6394935866722,542.3,17.0,934.0,19.19192538543228,19.19192538543228,15.532000000000007,17.0,934.0,19.19192538543228,542.3,545.5,497.0,578.0,81.0,527.0,553.75,776.6000000000004
497.6679615968864,497.48,16.0,619.0,13.67660776654796,13.67660776654796,10.9616,16.0,619.0,13.67660776654796,497.48,499.0,469.0,531.0,62.0,486.75,505.0,548.0799999999999
489.24574602136295,488.84,26.0,1153.0,19.921204782843837,19.921204782843837,16.612800000000004,26.0,1153.0,19.92120478284383,488.84,490.5,456.0,540.0,84.0,475.0,504.5,830.6400000000001
501.46714747827696,500.86,17.0,1087.0,24.6690170051423,24.6690170051423,19.1288,17.0,1087.0,24.6690170051423,500.86,497.5,464.0,579.0,115.0,481.25,514.75,956.44
535.6490455512826,535.1,17.0,980.0,24.24644303810355,24.24644303810355,18.968,17.0,980.0,24.246443038103543,535.1,540.0,459.0,583.0,124.0,519.0,550.75,948.4
491.4783413335729,490.96,28.0,1373.0,22.566311173960177,22.566311173960177,18.0784,28.0,1373.0,22.56631117396018,490.96,490.0,456.0,561.0,105.0,475.25,506.0,903.9199999999998
503.5339909082604,503.32,18.0,722.0,14.67847403513049,14.67847403513049,11.958399999999996,18.0,722.0,14.678474035130492,503.32,501.0,474.0,546.0,72.0,492.25,512.75,597.9199999999998
568.1656096597188,567.52,14.0,999.0,27.07784334100484,27.07784334100484,21.1808,14.0,999.0,27.07784334100484,567.52,564.0,507.0,632.0,125.0,551.75,584.75,1059.04
478.49300935332377,478.2,24.0,861.0,16.74275962916508,16.74275962916508,13.688000000000002,24.0,861.0,16.74275962916508,478.2,478.0,443.0,509.0,66.0,467.0,494.0,684.4000000000001
524.3454228359199,524.204081632653,15.0,500.0,12.173875662515917,12.173875662515917,9.473552686380671,15.0,500.0,12.173875662515917,524.204081632653,524.0,499.0,550.0,51.0,515.0,530.0,464.204081632653
493.4886624837495,492.78,20.0,1347.0,26.437314538356578,26.437314538356578,20.8424,20.0,1347.0,26.437314538356578,492.78,489.0,439.0,564.0,125.0,476.25,507.5,1042.12
500.1774285191206,498.3,11.0,1309.0,43.29630469220208,43.29630469220208,34.604,11.0,1309.0,43.29630469220208,498.3,495.5,404.0,597.0,193.0,471.25,520.0,1730.1999999999998
492.6016522050064,491.57142857142856,16.0,861.0,31.84208484611111,31.84208484611111,23.825072886297377,16.0,861.0,31.84208484611111,491.57142857142856,493.0,416.0,561.0,145.0,483.0,514.0,1167.4285714285716
510.4833787695737,509.92,23.0,1313.0,23.976521849509364,23.976521849509364,19.2368,23.0,1313.0,23.976521849509364,509.92,509.0,463.0,564.0,101.0,493.5,526.75,961.84
603.5477942963589,603.14,28.0,1260.0,22.182885294749195,22.182885294749195,17.7624,28.0,1260.0,22.18288529474919,603.14,600.0,559.0,661.0,102.0,588.0,615.5,888.1199999999999
504.616012429253,504.12,18.0,1144.0,22.3684062910168,22.3684062910168,18.4448,18.0,1144.0,22.368406291016804,504.12,502.5,462.0,554.0,92.0,487.25,518.0,922.24
489.84387308610894,489.34,28.0,1375.0,22.21225787712721,22.21225787712721,17.806400000000004,28.0,1375.0,22.212257877127215,489.34,490.5,416.0,534.0,118.0,471.0,503.75,890.3200000000002
539.6505535992712,539.12,7.0,920.0,23.923745526150377,23.923745526150377,18.384,7.0,920.0,23.923745526150373,539.12,536.0,491.0,615.0,124.0,524.0,553.25,919.2
496.233150847462,496.06,24.0,776.0,13.10787549528908,13.10787549528908,10.8648,24.0,776.0,13.10787549528908,496.06,495.0,469.0,523.0,54.0,484.0,504.75,543.24
592.4721259266126,564.62,5.0,2477.0,179.52012589122148,179.52012589122148,144.6712,5.0,2477.0,179.52012589122148,564.62,627.0,1.0,783.0,782.0,455.25,689.5,7233.559999999999
512.8565686427346,512.62,18.0,724.0,15.57548073094375,15.57548073094375,12.4752,18.0,724.0,15.575480730943749,512.62,513.5,482.0,551.0,69.0,497.0,522.5,623.76
500.2454499583996,499.2244897959184,11.0,673.0,31.94399774741149,31.94399774741149,23.366930445647647,11.0,673.0,31.94399774741149,499.2244897959184,501.0,425.0,578.0,153.0,481.0,516.0,1144.9795918367347
487.0356455127284,482.48,8.0,1100.0,66.45878121061203,66.45878121061203,51.96,8.0,1100.0,66.45878121061205,482.48,482.0,369.0,639.0,270.0,432.0,512.75,2598.0
554.6942400998951,553.98,21.0,1123.0,28.14,28.14,23.0992,21.0,1123.0,28.14,553.98,551.0,505.0,616.0,111.0,534.75,576.75,1154.96
515.7649076856626,515.24,25.0,1262.0,23.26332736304074,23.26332736304074,19.588800000000003,25.0,1262.0,23.26332736304074,515.24,512.0,472.0,565.0,93.0,498.5,534.0,979.44
513.0853145433028,512.5,11.0,704.0,24.50081631293129,24.50081631293129,18.06,11.0,704.0,24.50081631293129,512.5,518.0,448.0,556.0,108.0,505.25,529.25,903.0
505.841872525397,505.6326530612245,26.0,815.0,14.547170111997335,14.547170111997335,11.506872136609742,26.0,815.0,14.547170111997335,505.6326530612245,507.0,466.0,549.0,83.0,494.0,513.0,563.8367346938774
520.466476289469,519.9019607843137,25.0,1369.0,24.234358126477865,24.234358126477865,20.652825836216845,25.0,1369.0,24.234358126477865,519.9019607843137,521.0,461.0,563.0,102.0,501.0,540.5,1053.294117647059
518.8388189023639,518.68,23.0,739.0,12.836572751322684,12.836572751322684,10.12,23.0,739.0,12.836572751322684,518.68,518.5,487.0,546.0,59.0,511.0,528.0,506.0
521.3287638333416,521.04,26.0,942.0,17.349305461602782,17.349305461602782,13.601599999999998,26.0,942.0,17.34930546160278,521.04,521.0,484.0,566.0,82.0,511.25,530.75,680.0799999999999
519.6442244459183,519.36,21.0,890.0,17.18459775496651,17.18459775496651,13.96,21.0,890.0,17.18459775496651,519.36,519.5,487.0,562.0,75.0,505.5,528.75,698.0
522.5500358817326,522.34,25.0,820.0,14.814330899504034,14.814330899504034,11.832799999999995,25.0,820.0,14.814330899504034,522.34,524.0,478.0,555.0,77.0,512.5,532.0,591.6399999999999
479.757959808902,479.02,18.0,1265.0,26.599616538589423,26.599616538589423,22.7824,18.0,1265.0,26.599616538589423,479.02,473.5,433.0,538.0,105.0,459.5,501.75,1139.12
506.8104379351317,506.38,23.0,1128.0,20.88338095232666,20.88338095232666,16.8808,23.0,1128.0,20.883380952326657,506.38,504.0,466.0,552.0,86.0,490.25,523.0,844.04
501.6349070788435,501.5,30.0,715.0,11.63314230979747,11.63314230979747,9.78,30.0,715.0,11.63314230979747,501.5,502.5,474.0,526.0,52.0,493.0,509.0,489.0
492.83029533501696,492.7,34.0,765.0,11.331813623599713,11.331813623599713,9.328,34.0,765.0,11.331813623599713,492.7,492.0,467.0,517.0,50.0,484.25,501.75,466.4
527.3355667883592,527.24,18.0,421.0,10.039043779165423,10.039043779165423,8.489600000000001,18.0,421.0,10.039043779165423,527.24,524.5,505.0,551.0,46.0,520.25,534.75,424.48
514.7806745179377,513.9591836734694,20.0,1508.0,29.070610156028977,29.070610156028977,23.017909204498125,20.0,1508.0,29.070610156028977,513.9591836734694,512.0,444.0,612.0,168.0,494.0,530.0,1127.8775510204082
495.3258725324168,495.12,29.0,769.0,14.279551813694994,14.279551813694994,11.1696,29.0,769.0,14.279551813694994,495.12,492.0,461.0,531.0,70.0,487.25,502.75,558.48
495.7162898271551,495.56,25.0,582.0,12.44694339988738,12.44694339988738,9.5152,25.0,582.0,12.44694339988738,495.56,497.0,461.0,526.0,65.0,488.75,503.75,475.76
517.4204866450497,517.0,17.0,1048.0,20.85569466596593,20.85569466596593,16.52,17.0,1048.0,20.85569466596593,517.0,517.5,475.0,585.0,110.0,501.25,531.75,826.0
558.4408689213502,537.3877551020408,5.0,3101.0,151.89010747254628,151.89010747254628,116.79216992919618,5.0,3101.0,151.89010747254628,537.3877551020408,510.0,151.0,866.0,715.0,455.0,622.0,5722.816326530613
503.605242228474,503.0,17.0,925.0,24.682787524912985,24.682787524912985,20.24,17.0,925.0,24.682787524912985,503.0,504.5,457.0,559.0,102.0,487.25,519.25,1012.0
510.4841819292739,509.46,31.0,1909.0,32.32040222521991,32.32040222521991,24.6104,31.0,1909.0,32.32040222521991,509.46,501.0,450.0,621.0,171.0,492.0,524.5,1230.52
568.4323989331209,567.4705882352941,14.0,1290.0,33.0533454396377,33.0533454396377,27.69319492502884,14.0,1290.0,33.0533454396377,567.4705882352941,562.0,509.0,641.0,132.0,546.0,589.0,1412.3529411764707
560.0736023059826,545.04,5.0,2547.0,128.894679486781,128.894679486781,90.4128,5.0,2547.0,128.89467948678097,545.04,511.5,367.0,1022.0,655.0,467.0,584.5,4520.639999999999
509.7109769271209,509.56,21.0,612.0,12.405095727159868,12.405095727159868,10.08,21.0,612.0,12.405095727159868,509.56,509.5,480.0,538.0,58.0,502.0,518.75,504.0
522.4458058019032,522.22,23.0,915.0,15.358762971020813,15.358762971020813,13.077600000000002,23.0,915.0,15.35876297102081,522.22,520.0,491.0,555.0,64.0,509.75,532.75,653.8800000000001
493.95939104343387,492.44,13.0,1234.0,38.71338786518173,38.71338786518173,30.8704,13.0,1234.0,38.71338786518173,492.44,485.5,417.0,585.0,168.0,467.25,517.25,1543.52
383.2477788585343,381.7,17.0,1143.0,34.40886513676381,34.40886513676381,25.772,17.0,1143.0,34.40886513676381,381.7,379.0,299.0,485.0,186.0,361.0,397.75,1288.6
355.38866048313923,354.1,13.0,991.0,30.23722870899382,30.23722870899382,24.832000000000008,13.0,991.0,30.23722870899382,354.1,351.0,295.0,423.0,128.0,332.0,375.75,1241.6000000000004
544.8169600884319,544.12,13.0,907.0,27.54896731276873,27.54896731276873,22.9296,13.0,907.0,27.54896731276873,544.12,541.5,477.0,603.0,126.0,524.25,562.75,1146.48
514.7384578599116,514.44,27.0,1027.0,17.526163299478867,17.526163299478867,13.404799999999996,27.0,1027.0,17.526163299478867,514.44,516.0,469.0,547.0,78.0,507.0,527.0,670.2399999999998
523.5238867520756,522.74,31.0,1888.0,28.638303022351028,28.638303022351028,24.4008,31.0,1888.0,28.638303022351028,522.74,528.5,465.0,584.0,119.0,504.0,545.25,1220.04
486.61670748136055,486.26,19.0,838.0,18.628805651463544,18.628805651463544,15.548800000000002,19.0,838.0,18.628805651463544,486.26,490.0,440.0,524.0,84.0,472.25,499.0,777.44
495.51823377147286,495.44,29.0,538.0,8.804907722401184,8.804907722401184,7.0448,29.0,538.0,8.804907722401184,495.44,496.0,478.0,517.0,39.0,489.0,501.0,352.24
509.4297792630501,509.3,22.0,597.0,11.49826073804208,11.49826073804208,8.552,22.0,597.0,11.49826073804208,509.3,509.0,483.0,548.0,65.0,502.25,515.5,427.6
513.6508541801522,513.36,22.0,965.0,17.283240436908816,17.283240436908816,14.0144,22.0,965.0,17.283240436908816,513.36,512.5,480.0,563.0,83.0,502.0,525.5,700.72
521.8347247932049,521.72,26.0,640.0,10.941736608052672,10.941736608052672,8.908800000000001,26.0,640.0,10.941736608052672,521.72,521.0,500.0,547.0,47.0,512.25,529.0,445.44000000000005
491.8797617304457,491.22,25.0,1609.0,25.4678542480516,25.4678542480516,20.3312,25.0,1609.0,25.4678542480516,491.22,492.5,435.0,544.0,109.0,475.0,512.0,1016.56
531.2736959421198,531.06,27.0,851.0,15.067063416605109,15.067063416605109,11.594399999999986,27.0,851.0,15.067063416605109,531.06,529.0,493.0,563.0,70.0,523.0,539.5,579.7199999999993
491.1581008188708,490.8,29.0,1069.0,18.75206655278292,18.75206655278292,15.392000000000005,29.0,1069.0,18.75206655278292,490.8,488.5,457.0,534.0,77.0,477.0,503.0,769.6000000000001
521.3502277739984,521.22,21.0,583.0,11.652107105583951,11.652107105583951,9.584799999999996,21.0,583.0,11.652107105583951,521.22,523.0,487.0,543.0,56.0,514.0,530.5,479.2399999999998
513.9908678613833,512.8571428571429,14.0,1285.0,34.11983683000437,34.11983683000437,24.897959183673475,14.0,1285.0,34.11983683000437,512.8571428571429,507.0,435.0,637.0,202.0,495.0,529.0,1220.0000000000002
524.9110781837244,524.68,27.0,1018.0,15.573618718846305,15.573618718846305,12.574399999999995,27.0,1018.0,15.573618718846305,524.68,523.0,490.0,557.0,67.0,515.25,535.75,628.7199999999998
267.15156746685955,255.68,5.0,1154.0,77.44480357002656,77.44480357002656,65.35999999999999,5.0,1154.0,77.44480357002656,255.68,256.5,97.0,396.0,299.0,199.25,320.75,3267.9999999999995
511.6798413070423,511.58,25.0,546.0,10.107601100162196,10.107601100162196,8.62,25.0,546.0,10.107601100162194,511.58,511.5,485.0,529.0,44.0,504.25,519.5,431.0
531.3729951738233,530.46,21.0,1348.0,31.13596634119455,31.13596634119455,25.2416,21.0,1348.0,31.135966341194557,530.46,531.5,477.0,600.0,123.0,508.25,553.0,1262.08
492.8466089971605,484.02,8.0,1375.0,92.85698465920588,92.85698465920588,63.21200000000001,8.0,1375.0,92.85698465920588,484.02,499.0,221.0,662.0,441.0,466.25,521.75,3160.6000000000004
491.5758537601293,490.66,17.0,1203.0,29.99307253350347,29.99307253350347,22.472800000000003,17.0,1203.0,29.993072533503465,490.66,489.5,438.0,598.0,160.0,472.25,502.75,1123.64
497.6369359281925,496.92,22.0,1501.0,26.702689003169706,26.702689003169706,21.024000000000004,22.0,1501.0,26.702689003169706,496.92,494.0,450.0,569.0,119.0,476.25,513.0,1051.2000000000005
504.8858024042543,504.57142857142856,28.0,1062.0,17.81423416191418,17.81423416191418,13.900874635568517,28.0,1062.0,17.814234161914182,504.57142857142856,506.0,454.0,539.0,85.0,493.0,516.0,681.1428571428572
508.9723568132163,508.82,23.0,652.0,12.452614183375314,12.452614183375314,10.0272,23.0,652.0,12.452614183375312,508.82,509.0,480.0,538.0,58.0,500.5,518.75,501.36
540.4138414215536,540.0,26.0,1093.0,21.14521222404732,21.14521222404732,16.68,26.0,1093.0,21.14521222404732,540.0,540.5,481.0,584.0,103.0,527.0,554.5,834.0
588.5500169475655,588.2244897959183,29.0,1120.0,19.57222658031325,19.57222658031325,14.88213244481466,29.0,1120.0,19.57222658031325,588.2244897959183,588.0,533.0,636.0,103.0,578.0,603.0,729.2244897959183
512.0304483133791,511.78,22.0,884.0,16.012857334030052,16.012857334030052,13.291199999999998,22.0,884.0,16.012857334030052,511.78,510.0,480.0,545.0,65.0,500.25,522.5,664.56
257.9837204166185,247.12,1.0,890.0,74.0763498020792,74.0763498020792,65.1744,1.0,890.0,74.0763498020792,247.12,237.5,97.0,358.0,261.0,197.25,321.5,3258.7200000000003
535.5895256630772,535.3,32.0,1055.0,17.608236708995026,17.608236708995026,14.043999999999995,32.0,1055.0,17.608236708995026,535.3,534.0,503.0,587.0,84.0,521.25,543.75,702.1999999999998
507.9351336538948,507.74,30.0,850.0,14.07808225576197,14.07808225576197,10.9104,30.0,850.0,14.078082255761968,507.74,508.0,478.0,545.0,67.0,498.0,515.0,545.52
499.1697306528112,498.5,26.0,1563.0,25.84898450616581,25.84898450616581,20.58,26.0,1563.0,25.84898450616581,498.5,498.5,446.0,567.0,121.0,477.5,516.25,1029.0
567.0559677741124,566.5098039215686,17.0,990.0,24.88197437867745,24.88197437867745,19.972318339100344,17.0,990.0,24.88197437867745,566.5098039215686,564.0,503.0,615.0,112.0,552.5,584.0,1018.5882352941176
499.35856856571513,499.22,21.0,547.0,11.763145837742556,11.763145837742556,9.371199999999998,21.0,547.0,11.763145837742556,499.22,500.0,474.0,526.0,52.0,491.25,504.0,468.56
488.0192209329464,487.36,11.0,1003.0,25.35725537198377,25.35725537198377,21.1712,11.0,1003.0,25.357255371983776,487.36,490.5,438.0,546.0,108.0,466.25,502.75,1058.56
525.9786497568128,525.9,21.0,492.0,9.095603333479314,9.095603333479314,7.291999999999998,21.0,492.0,9.095603333479314,525.9,525.0,507.0,550.0,43.0,520.0,531.75,364.5999999999999
511.6911959375498,511.52,26.0,798.0,13.235165280418675,13.235165280418675,10.5008,26.0,798.0,13.235165280418675,511.52,511.0,492.0,544.0,52.0,500.0,518.0,525.04
493.9331938632997,493.56,17.0,821.0,19.197041438721747,19.197041438721747,14.7552,17.0,821.0,19.197041438721747,493.56,495.5,446.0,537.0,91.0,483.75,505.75,737.76
559.192099301813,554.3137254901961,7.0,1270.0,73.70276558412293,73.70276558412293,51.72241445597849,7.0,1270.0,73.70276558412291,554.3137254901961,531.0,476.0,785.0,309.0,513.5,553.0,2637.843137254903
523.284049134341,523.1372549019608,18.0,499.0,12.393894144790808,12.393894144790808,9.651672433679352,18.0,499.0,12.393894144790808,523.1372549019608,522.0,495.0,553.0,58.0,515.0,530.5,492.23529411764696
490.7494268972711,490.4,24.0,1001.0,18.515939079614625,18.515939079614625,14.68,24.0,1001.0,18.515939079614625,490.4,490.5,450.0,535.0,85.0,480.5,502.75,734.0
560.0901177489209,559.42,15.0,951.0,27.389844833441465,27.389844833441465,21.876799999999992,15.0,951.0,27.389844833441455,559.42,558.0,490.0,620.0,130.0,541.0,577.75,1093.8399999999997
489.6878014175388,489.2857142857143,28.0,1128.0,19.84017774772253,19.84017774772253,16.396501457725947,28.0,1128.0,19.84017774772253,489.2857142857143,488.0,451.0,533.0,82.0,478.0,505.0,803.4285714285713
525.3932622331581,524.88,18.0,1099.0,23.217786285518265,23.217786285518265,18.6704,18.0,1099.0,23.217786285518265,524.88,522.5,483.0,583.0,100.0,508.0,541.5,933.52
517.5110047139094,516.8,26.0,1512.0,27.11825953117198,27.11825953117198,22.96,26.0,1512.0,27.11825953117198,516.8,515.5,452.0,566.0,114.0,499.25,534.75,1148.0
505.90455621589336,504.9,22.0,1908.0,31.86549858389164,31.86549858389164,25.38,22.0,1908.0,31.86549858389164,504.9,504.5,436.0,585.0,149.0,481.0,529.5,1269.0
469.65178590100135,469.4,25.0,890.0,15.37660560722034,15.37660560722034,11.944,25.0,890.0,15.37660560722034,469.4,470.0,429.0,503.0,74.0,460.25,479.0,597.2
494.49266930865616,493.92,10.0,729.0,23.79146065293176,23.79146065293176,18.1664,10.0,729.0,23.79146065293176,493.92,494.5,444.0,552.0,108.0,482.0,507.25,908.32
515.1401556858094,513.1,19.0,2022.0,45.801419191985744,45.801419191985744,38.58,19.0,2022.0,45.801419191985744,513.1,512.5,420.0,612.0,192.0,485.25,546.5,1929.0
513.53253061515,512.82,31.0,1725.0,27.042699569384716,27.042699569384716,21.9328,31.0,1725.0,27.04269956938471,512.82,510.0,438.0,562.0,124.0,495.25,535.0,1096.64
517.8449188705051,517.64,16.0,651.0,14.566756674016355,14.566756674016355,11.6544,16.0,651.0,14.566756674016355,517.64,518.5,489.0,552.0,63.0,507.25,526.0,582.72
524.4885944558621,524.2448979591836,16.0,617.0,15.98664061179872,15.98664061179872,12.27988338192419,16.0,617.0,15.98664061179872,524.2448979591836,523.0,492.0,563.0,71.0,513.0,532.0,601.7142857142853
451.635350471947,451.3061224489796,12.0,772.0,17.241625096985675,17.241625096985675,13.426905456059975,12.0,772.0,17.241625096985675,451.3061224489796,448.0,404.0,493.0,89.0,442.0,460.0,657.9183673469388
514.9840191695272,514.5,25.0,1308.0,22.322410264126948,22.322410264126948,18.84,25.0,1308.0,22.322410264126948,514.5,515.5,467.0,553.0,86.0,498.25,534.75,942.0
561.3447047501387,561.265306122449,13.0,278.0,9.441064256430211,9.441064256430211,7.177009579341935,13.0,278.0,9.441064256430211,561.265306122449,562.0,537.0,575.0,38.0,557.0,568.0,351.67346938775484
499.6131503473462,499.46,22.0,676.0,12.369656422067672,12.369656422067672,10.155199999999995,22.0,676.0,12.369656422067672,499.46,497.0,480.0,537.0,57.0,491.0,507.0,507.7599999999999
498.179586093208,498.06,18.0,578.0,10.914962207905257,10.914962207905257,8.5848,18.0,578.0,10.914962207905257,498.06,497.5,466.0,520.0,54.0,492.25,506.75,429.24
508.2030969554417,507.8979591836735,11.0,567.0,17.608259770959744,17.608259770959744,14.353186172428153,11.0,567.0,17.608259770959744,507.8979591836735,510.0,470.0,546.0,76.0,498.0,520.0,703.3061224489795
564.9671671876164,564.58,29.0,1094.0,20.91228347168238,20.91228347168238,16.836799999999997,29.0,1094.0,20.91228347168238,564.58,565.0,517.0,605.0,88.0,553.0,580.0,841.8399999999999
511.151132249553,511.0,27.0,706.0,12.428998350631478,12.428998350631478,9.68,27.0,706.0,12.428998350631478,511.0,508.0,493.0,546.0,53.0,504.0,516.0,484.0
647.9197481170025,628.0392156862745,4.0,2118.0,159.26940559997442,159.26940559997442,129.3279507881584,4.0,2118.0,159.26940559997442,628.0392156862745,669.0,341.0,958.0,617.0,502.5,722.5,6595.725490196079
524.0730674247628,523.38,21.0,1390.0,26.943563238740342,26.943563238740342,23.854399999999995,21.0,1390.0,26.943563238740342,523.38,529.5,475.0,566.0,91.0,500.75,546.0,1192.7199999999998
523.1219818007434,522.9607843137255,23.0,728.0,12.985604071830553,12.985604071830553,10.50595924644368,23.0,728.0,12.985604071830553,522.9607843137255,520.0,489.0,552.0,63.0,515.0,531.5,535.8039215686276
496.9445441897919,496.2,23.0,1164.0,27.192646064699183,27.192646064699183,20.168,23.0,1164.0,27.192646064699183,496.2,495.0,442.0,598.0,156.0,480.25,509.5,1008.4
498.45439109310695,498.34,17.0,550.0,10.678220825587005,10.678220825587005,8.327199999999998,17.0,550.0,10.678220825587005,498.34,497.5,466.0,520.0,54.0,493.0,506.75,416.3599999999999
536.940220136283,536.48,19.0,978.0,22.22632673205359,22.22632673205359,18.7808,19.0,978.0,22.22632673205359,536.48,537.0,486.0,579.0,93.0,520.25,556.0,939.04
482.019024520817,481.38,26.0,1394.0,24.8120051587936,24.8120051587936,19.7704,26.0,1394.0,24.8120051587936,481.38,479.0,418.0,537.0,119.0,464.75,493.75,988.52
496.88103203885737,495.36,10.0,1027.0,38.84881465373171,38.84881465373171,28.792,10.0,1027.0,38.84881465373172,495.36,491.5,417.0,606.0,189.0,472.75,512.75,1439.6
513.5243908520802,513.26,19.0,702.0,16.476419513959943,16.476419513959943,13.18,19.0,702.0,16.476419513959943,513.26,513.5,474.0,548.0,74.0,501.0,523.75,659.0
487.00213551893177,486.48,23.0,1048.0,22.54527888494618,22.54527888494618,17.238400000000002,23.0,1048.0,22.54527888494618,486.48,485.5,415.0,534.0,119.0,473.25,500.25,861.9200000000001
521.4307048880033,520.7,19.0,1299.0,27.595108262154,27.595108262154,23.844,19.0,1299.0,27.595108262154,520.7,525.0,454.0,566.0,112.0,500.0,544.5,1192.1999999999998
505.2210605269737,505.04,26.0,764.0,13.524732899395833,13.524732899395833,10.7952,26.0,764.0,13.524732899395833,505.04,506.5,466.0,549.0,83.0,494.25,513.0,539.76
488.3112122407185,487.6,24.0,1606.0,26.34539808012018,26.34539808012018,20.936000000000003,24.0,1606.0,26.34539808012018,487.6,488.5,432.0,549.0,117.0,471.0,505.25,1046.8000000000002
468.2546956518429,467.98,27.0,941.0,16.036820133679868,16.036820133679868,12.262399999999998,27.0,941.0,16.036820133679868,467.98,469.0,429.0,503.0,74.0,459.5,477.75,613.1199999999999
505.4998911968231,505.06,26.0,1155.0,21.084031872485863,21.084031872485863,17.62,26.0,1155.0,21.084031872485863,505.06,504.5,462.0,554.0,92.0,489.5,518.0,881.0
521.8045994431249,521.0,23.0,1382.0,28.966187184370675,28.966187184370675,21.4,23.0,1382.0,28.966187184370675,521.0,520.0,473.0,637.0,164.0,500.0,535.5,1070.0
501.2720020108843,501.14,21.0,635.0,11.503060462329143,11.503060462329143,8.9,21.0,635.0,11.503060462329143,501.14,501.5,480.0,536.0,56.0,492.25,507.0,445.0
511.0519934409805,503.22,17.0,3753.0,89.12783852422316,89.12783852422316,68.8336,17.0,3753.0,89.12783852422316,503.22,517.0,188.0,679.0,491.0,460.25,558.5,3441.6800000000003
504.8544740813931,504.72,23.0,668.0,11.651677990744508,11.651677990744508,9.457600000000005,23.0,668.0,11.651677990744508,504.72,503.0,484.0,534.0,50.0,496.0,511.75,472.8800000000001
464.7166018123304,464.68,22.0,280.0,5.832460887138463,5.832460887138463,4.4928,22.0,280.0,5.832460887138463,464.68,465.0,452.0,479.0,27.0,460.0,468.0,224.64
487.1668092142567,486.26,14.0,877.0,29.71047626679855,29.71047626679855,23.1104,14.0,877.0,29.71047626679855,486.26,485.5,426.0,550.0,124.0,471.0,507.75,1155.52
517.8706595280331,517.1,16.0,1340.0,28.241990014869703,28.241990014869703,22.255999999999997,16.0,1340.0,28.241990014869707,517.1,518.0,464.0,592.0,128.0,498.75,532.0,1112.7999999999995
501.2276927704614,501.08,20.0,670.0,12.166905933720372,12.166905933720372,9.726399999999998,20.0,670.0,12.166905933720374,501.08,501.0,480.0,536.0,56.0,491.25,508.5,486.32
513.4807493957295,511.76,7.0,1059.0,42.00217137244216,42.00217137244216,32.4288,7.0,1059.0,42.00217137244216,511.76,516.0,402.0,603.0,201.0,486.0,532.0,1621.44
551.4379064825724,551.3333333333334,12.0,407.0,10.73872717960134,10.73872717960134,8.967320261437909,12.0,407.0,10.738727179601335,551.3333333333334,551.0,530.0,573.0,43.0,542.0,559.5,457.33333333333337
510.31443248256267,509.86,25.0,1229.0,21.531381748508387,21.531381748508387,17.9744,25.0,1229.0,21.531381748508387,509.86,508.5,471.0,554.0,83.0,494.0,524.75,898.72
519.3014538781882,518.204081632653,29.0,2202.0,33.74210691789477,33.74210691789477,28.58392336526447,29.0,2202.0,33.74210691789477,518.204081632653,517.0,461.0,591.0,130.0,486.0,544.0,1400.612244897959
513.3657175932183,512.96,11.0,764.0,20.40584230067458,20.40584230067458,16.316800000000004,11.0,764.0,20.40584230067458,512.96,511.0,468.0,562.0,94.0,500.0,529.0,815.8400000000001
477.4885129508353,476.8,18.0,1208.0,25.632791498391278,25.632791498391278,21.856,18.0,1208.0,25.632791498391278,476.8,473.5,433.0,525.0,92.0,456.75,497.75,1092.8
532.6841277905697,532.5,15.0,586.0,14.004642087536546,14.004642087536546,11.56,15.0,586.0,14.004642087536546,532.5,534.5,504.0,568.0,64.0,522.0,544.0,578.0
564.8523877970243,564.46,17.0,791.0,21.050615192910637,21.050615192910637,16.398400000000002,17.0,791.0,21.050615192910637,564.46,562.0,509.0,615.0,106.0,551.5,576.5,819.9200000000001
505.016871005316,504.52,18.0,713.0,22.396642605533536,22.396642605533536,15.616000000000003,18.0,713.0,22.396642605533536,504.52,508.0,428.0,551.0,123.0,497.25,517.75,780.8000000000002
495.8490092760093,494.92,14.0,1146.0,30.33864861855254,30.33864861855254,25.1296,14.0,1146.0,30.33864861855254,494.92,498.0,420.0,546.0,126.0,470.5,519.5,1256.48
494.62986161371214,493.98,26.0,1455.0,25.34678677860371,25.34678677860371,19.3384,26.0,1455.0,25.346786778603715,493.98,491.0,441.0,561.0,120.0,477.25,506.5,966.92
490.614797983102,490.24,21.0,902.0,19.173481686955032,19.173481686955032,15.32,21.0,902.0,19.173481686955032,490.24,490.5,434.0,530.0,96.0,480.5,505.75,766.0
527.5828086660898,526.86,28.0,1755.0,27.607252670267645,27.607252670267645,21.876799999999992,28.0,1755.0,27.60725267026764,526.86,529.5,455.0,591.0,136.0,507.25,546.75,1093.8399999999997
501.7773809170756,501.18,18.0,1032.0,24.47749170156125,24.47749170156125,20.0816,18.0,1032.0,24.47749170156125,501.18,497.5,462.0,561.0,99.0,481.25,515.75,1004.08
514.364948261446,514.1,20.0,805.0,16.5072711251739,16.5072711251739,12.828,20.0,805.0,16.507271125173897,514.1,512.5,474.0,564.0,90.0,504.0,523.75,641.4000000000001
510.681250879646,506.18,14.0,2170.0,67.65461994572138,67.65461994572138,47.561600000000006,14.0,2170.0,67.65461994572136,506.18,500.5,275.0,667.0,392.0,479.25,542.75,2378.0800000000004
530.0619209111328,529.92,19.0,525.0,12.265137585856916,12.265137585856916,10.030399999999997,19.0,525.0,12.265137585856914,529.92,529.0,504.0,555.0,51.0,522.0,540.75,501.51999999999975
495.8186765340733,494.52,23.0,2062.0,35.86264909345097,35.86264909345097,27.564799999999995,23.0,2062.0,35.862649093450976,494.52,490.0,451.0,617.0,166.0,463.75,510.25,1378.2399999999998
499.88828752032185,498.86,27.0,1894.0,32.046846958788315,32.046846958788315,25.4888,27.0,1894.0,32.04684695878832,498.86,491.0,448.0,592.0,144.0,474.25,513.0,1274.44
504.1973819844764,503.96,14.0,699.0,15.46991919823759,15.46991919823759,12.756799999999998,14.0,699.0,15.469919198237593,503.96,502.0,474.0,546.0,72.0,492.25,515.75,637.8399999999999
534.4279932787953,533.8,24.0,1183.0,25.900579144104096,25.900579144104096,21.152,24.0,1183.0,25.900579144104093,533.8,533.0,481.0,600.0,119.0,512.25,550.75,1057.6
545.4045471024237,545.32,21.0,493.0,9.602999531396428,9.602999531396428,7.84,21.0,493.0,9.602999531396428,545.32,545.5,521.0,568.0,47.0,538.25,551.75,392.0
517.995552255869,517.2745098039215,29.0,1604.0,27.321670226678933,27.321670226678933,22.34755863129565,29.0,1604.0,27.321670226678933,517.2745098039215,519.0,438.0,562.0,124.0,502.0,543.0,1139.7254901960785
536.787781575717,536.5510204081633,19.0,716.0,15.941296934012586,15.941296934012586,12.47646813827572,19.0,716.0,15.941296934012584,536.5510204081633,538.0,478.0,566.0,88.0,527.0,549.0,611.3469387755102
510.9262373376415,510.54,24.0,1176.0,19.862738985346404,19.862738985346404,15.764800000000005,24.0,1176.0,19.862738985346407,510.54,507.5,474.0,567.0,93.0,496.0,523.75,788.2400000000002
481.5645128121465,481.3,28.0,892.0,15.95900999435742,15.95900999435742,11.836,28.0,892.0,15.95900999435742,481.3,482.0,434.0,523.0,89.0,471.25,487.0,591.8
594.9901175649894,567.24,1.0,2239.0,179.5884806996262,179.5884806996262,159.6384,1.0,2239.0,179.58848069962616,567.24,516.5,341.0,958.0,617.0,414.75,726.75,7981.92
513.9121325674264,513.64,26.0,945.0,16.722152971432834,16.722152971432834,13.102399999999998,26.0,945.0,16.722152971432838,513.64,511.5,483.0,553.0,70.0,502.25,520.0,655.1199999999999
557.7497976106257,557.1632653061224,9.0,847.0,25.57210449128672,25.57210449128672,20.670553935860063,9.0,847.0,25.57210449128672,557.1632653061224,560.0,502.0,615.0,113.0,537.0,572.0,1012.8571428571432
525.2930420251157,525.18,23.0,539.0,10.897137238743028,10.897137238743028,8.358400000000007,23.0,539.0,10.897137238743028,525.18,526.0,498.0,547.0,49.0,520.25,531.75,417.9200000000003
511.2056337717729,510.84,21.0,1094.0,19.33117689122936,19.33117689122936,15.687999999999995,21.0,1094.0,19.33117689122936,510.84,508.0,479.0,564.0,85.0,496.0,525.0,784.3999999999999
520.9770436401205,520.84,23.0,641.0,11.94882420993798,11.94882420993798,9.492799999999995,23.0,641.0,11.948824209937982,520.84,521.0,498.0,547.0,49.0,511.0,528.75,474.6399999999999
501.0587989447945,500.92,22.0,580.0,11.792947044738224,11.792947044738224,9.046399999999998,22.0,580.0,11.792947044738224,500.92,501.0,474.0,532.0,58.0,493.0,506.75,452.32
580.7828509864939,580.28,19.0,1149.0,24.162814405610952,24.162814405610952,20.0,19.0,1149.0,24.16281440561095,580.28,580.5,535.0,645.0,110.0,565.25,596.75,1000.0
530.5174078199508,530.2,21.0,829.0,18.348841925309618,18.348841925309618,14.576000000000004,21.0,829.0,18.348841925309618,530.2,527.0,489.0,583.0,94.0,518.0,541.5,728.8000000000002
508.71662052659536,507.28,9.0,1293.0,38.20473269112088,38.20473269112088,31.452800000000007,9.0,1293.0,38.20473269112087,507.28,515.5,413.0,575.0,162.0,484.75,534.0,1572.6400000000003
528.4578696547152,527.76,17.0,957.0,27.149629831730675,27.149629831730675,21.6192,17.0,957.0,27.149629831730675,527.76,529.5,473.0,581.0,108.0,508.0,543.75,1080.96
511.4075282981274,510.7,13.0,884.0,26.891820317709996,26.891820317709996,21.783999999999995,13.0,884.0,26.891820317709996,510.7,504.0,449.0,594.0,145.0,493.25,528.0,1089.1999999999998
519.062539584586,518.92,26.0,672.0,12.16361788285048,12.16361788285048,9.8432,26.0,672.0,12.16361788285048,518.92,519.0,488.0,544.0,56.0,511.25,527.0,492.1600000000001
518.8514816399776,518.7,23.0,646.0,12.53674598929084,12.53674598929084,10.356000000000003,23.0,646.0,12.53674598929084,518.7,517.5,491.0,551.0,60.0,508.0,527.75,517.8000000000002
513.9507369388626,513.48,22.0,1107.0,21.992034921762013,21.992034921762013,17.6608,22.0,1107.0,21.992034921762013,513.48,514.5,464.0,574.0,110.0,495.25,529.25,883.04
514.0655989268296,513.92,19.0,688.0,12.234116232895614,12.234116232895614,9.6368,19.0,688.0,12.234116232895614,513.92,513.0,486.0,547.0,61.0,505.25,520.75,481.8399999999999
517.2210552558741,517.02,30.0,741.0,14.420110956577275,14.420110956577275,11.223199999999997,30.0,741.0,14.420110956577275,517.02,516.5,486.0,555.0,69.0,508.0,524.75,561.1599999999999
510.8292977390505,510.6122448979592,23.0,867.0,14.88982165232291,14.88982165232291,11.62932111620158,23.0,867.0,14.88982165232291,510.6122448979592,509.0,478.0,545.0,67.0,500.0,518.0,569.8367346938775
527.7097497678056,526.9,33.0,1861.0,29.222765098463903,29.222765098463903,22.94,33.0,1861.0,29.222765098463903,526.9,526.5,470.0,587.0,117.0,512.5,546.0,1147.0
506.9687889221352,506.3725490196079,19.0,1233.0,24.580369007834744,24.580369007834744,18.85505574778931,19.0,1233.0,24.580369007834737,506.3725490196079,503.0,463.0,586.0,123.0,491.0,518.5,961.6078431372548
522.1566048610321,521.8,23.0,1096.0,19.294558818485587,19.294558818485587,15.048000000000002,23.0,1096.0,19.294558818485587,521.8,522.5,487.0,566.0,79.0,507.25,531.75,752.4000000000001
518.1386230084197,517.795918367347,21.0,1018.0,18.8419631455167,18.8419631455167,14.583090379008754,21.0,1018.0,18.8419631455167,517.795918367347,516.0,482.0,579.0,97.0,506.0,528.0,714.5714285714289
511.8635365016735,511.48,25.0,979.0,19.81135028209839,19.81135028209839,15.64,25.0,979.0,19.81135028209839,511.48,511.5,460.0,547.0,87.0,496.0,524.0,782.0
509.0960813048948,508.78,12.0,773.0,17.93687821221965,17.93687821221965,14.94,12.0,773.0,17.93687821221965,508.78,508.5,473.0,544.0,71.0,495.25,524.0,747.0
514.453663052924,513.3061224489796,17.0,1125.0,34.34233662645275,34.34233662645275,24.58892128279883,17.0,1125.0,34.34233662645276,513.3061224489796,517.0,421.0,587.0,166.0,497.0,532.0,1204.857142857143
507.99379917475375,507.86,18.0,562.0,11.658490468323931,11.658490468323931,9.02,18.0,562.0,11.658490468323931,507.86,507.0,485.0,547.0,62.0,500.25,514.75,451.0
497.2057521791155,496.6,25.0,1349.0,24.53568829277059,24.53568829277059,21.112,25.0,1349.0,24.535688292770597,496.6,500.5,445.0,536.0,91.0,476.0,520.0,1055.6
560.555082039223,560.48,13.0,289.0,9.174399162888,9.174399162888,7.084799999999996,13.0,289.0,9.174399162887998,560.48,561.5,537.0,575.0,38.0,556.0,567.0,354.2399999999998
541.4827051716426,540.8,19.0,1260.0,27.18234721285121,27.18234721285121,21.32,19.0,1260.0,27.18234721285121,540.8,541.0,462.0,625.0,163.0,524.5,559.0,1066.0
525.5829525393684,525.52,24.0,393.0,8.134469865947013,8.134469865947013,6.139200000000001,24.0,393.0,8.134469865947013,525.52,526.0,509.0,552.0,43.0,520.0,530.0,306.96000000000004
531.7538559007411,531.5918367346939,24.0,647.0,13.12563835935957,13.12563835935957,10.839650145772591,24.0,647.0,13.12563835935957,531.5918367346939,529.0,506.0,562.0,56.0,523.0,542.0,531.142857142857
498.6952576473933,498.52,18.0,631.0,13.220045385701214,13.220045385701214,10.396800000000002,18.0,631.0,13.220045385701216,498.52,499.5,469.0,531.0,62.0,490.5,506.0,519.8400000000001
491.78245190327806,491.1,17.0,966.0,25.899227787715983,25.899227787715983,19.748,17.0,966.0,25.899227787715983,491.1,489.0,426.0,550.0,124.0,477.5,507.25,987.4
514.9819889856265,514.6122448979592,25.0,1082.0,19.5111860396727,19.5111860396727,16.141607663473554,25.0,1082.0,19.5111860396727,514.6122448979592,515.0,468.0,552.0,84.0,502.0,529.0,790.9387755102042
508.41624678997033,508.32,23.0,565.0,9.892300035886498,9.892300035886498,8.1728,23.0,565.0,9.892300035886496,508.32,508.0,483.0,525.0,42.0,502.0,516.0,408.64
527.2028262443213,526.82,22.0,1034.0,20.08749859987549,20.08749859987549,15.54,22.0,1034.0,20.08749859987549,526.82,527.0,473.0,587.0,114.0,516.0,539.75,777.0
557.3540255563977,556.6470588235294,18.0,1339.0,28.063529839201543,28.063529839201543,23.32410611303344,18.0,1339.0,28.063529839201543,556.6470588235294,555.0,505.0,616.0,111.0,539.0,579.0,1189.5294117647054
573.8075656951376,573.5714285714286,30.0,995.0,16.460217966667514,16.460217966667514,13.924198250728864,30.0,995.0,16.460217966667518,573.5714285714286,575.0,540.0,606.0,66.0,562.0,585.0,682.2857142857143
521.2617384769383,519.64,13.0,1545.0,41.08613391401045,41.08613391401045,33.6512,13.0,1545.0,41.08613391401045,519.64,515.0,434.0,599.0,165.0,493.5,546.0,1682.56
513.5488769139621,512.8979591836735,21.0,1265.0,25.84825806151472,25.84825806151472,21.365264473136197,21.0,1265.0,25.84825806151472,512.8979591836735,510.0,463.0,573.0,110.0,498.0,535.0,1046.8979591836735
522.4455569722073,521.92,27.0,1264.0,23.428051562176485,23.428051562176485,19.0304,27.0,1264.0,23.428051562176485,521.92,520.5,461.0,572.0,111.0,503.25,540.75,951.5199999999998
499.6009607676911,499.4,23.0,701.0,14.168980203246807,14.168980203246807,10.743999999999996,23.0,701.0,14.168980203246807,499.4,499.0,476.0,544.0,68.0,490.0,505.75,537.1999999999998
535.4336373445359,534.7,21.0,1230.0,28.01945752508424,28.01945752508424,22.324,21.0,1230.0,28.01945752508424,534.7,537.5,480.0,600.0,120.0,514.5,550.75,1116.1999999999998
514.6279238440137,513.78,21.0,1577.0,29.529842532597428,29.529842532597428,23.38,21.0,1577.0,29.529842532597428,513.78,514.0,438.0,580.0,142.0,494.75,530.75,1169.0
514.9580723967055,503.0,8.0,1406.0,110.3304868408121,110.3304868408121,79.18367346938776,8.0,1406.0,110.3304868408121,503.0,502.0,221.0,675.0,454.0,466.0,566.0,3880.0
494.9834744716232,493.84,8.0,1035.0,33.62579961874513,33.62579961874513,27.412800000000008,8.0,1035.0,33.62579961874513,493.84,496.0,429.0,564.0,135.0,467.25,518.0,1370.6400000000003
535.3038389550368,533.16,12.0,1245.0,47.8603635590036,47.8603635590036,37.8528,12.0,1245.0,47.8603635590036,533.16,530.0,429.0,648.0,219.0,498.5,557.75,1892.64
520.0943568238364,519.98,26.0,593.0,10.9059433337974,10.9059433337974,8.6592,26.0,593.0,10.9059433337974,519.98,519.0,495.0,544.0,49.0,513.25,527.0,432.96
525.8412498083428,525.5,18.0,985.0,18.941224881194984,18.941224881194984,15.58,18.0,985.0,18.941224881194984,525.5,527.0,486.0,561.0,75.0,512.25,540.5,779.0
513.9075014046789,513.2,26.0,1427.0,26.95700280075661,26.95700280075661,20.416000000000004,26.0,1427.0,26.95700280075661,513.2,509.0,450.0,608.0,158.0,498.0,526.0,1020.8000000000002
508.3491689292119,508.2244897959184,24.0,619.0,11.25813140351788,11.25813140351788,9.208663057059558,24.0,619.0,11.25813140351788,508.2244897959184,508.0,480.0,526.0,46.0,502.0,518.0,451.2244897959184
496.99766599049536,496.24,10.0,873.0,27.43250626537794,27.43250626537794,23.24,10.0,873.0,27.432506265377945,496.24,497.5,444.0,552.0,108.0,476.25,520.5,1162.0
521.9652862020615,521.64,15.0,820.0,18.424722521655514,18.424722521655514,14.4944,15.0,820.0,18.424722521655514,521.64,522.5,479.0,568.0,89.0,508.25,533.0,724.72
519.1238965796123,518.98,18.0,642.0,12.222094746809976,12.222094746809976,9.783999999999995,18.0,642.0,12.222094746809974,518.98,521.0,487.0,538.0,51.0,512.25,527.0,489.1999999999998
491.53134182877903,488.14,16.0,1946.0,57.64026717495331,57.64026717495331,42.62640000000001,16.0,1946.0,57.64026717495331,488.14,496.5,275.0,580.0,305.0,464.25,522.0,2131.3200000000006
506.4921519628907,505.86,17.0,900.0,25.29743860551894,25.29743860551894,21.8024,17.0,900.0,25.29743860551894,505.86,514.0,454.0,548.0,94.0,482.75,523.5,1090.12
491.4288351328196,488.9,19.0,1833.0,49.79046093379735,49.79046093379735,35.368,19.0,1833.0,49.79046093379735,488.9,484.5,379.0,656.0,277.0,464.0,506.25,1768.4
527.9757570192025,527.52,20.0,1056.0,21.93284295297808,21.93284295297808,17.1616,20.0,1056.0,21.93284295297808,527.52,526.5,469.0,579.0,110.0,514.0,539.75,858.0799999999999
497.82390460884864,497.56,13.0,589.0,16.20760315407556,16.20760315407556,13.227199999999998,13.0,589.0,16.20760315407556,497.56,494.0,464.0,539.0,75.0,485.5,506.5,661.3599999999999
514.8249605448439,513.98,26.0,1616.0,29.483887125004397,29.483887125004397,23.06,26.0,1616.0,29.4838871250044,513.98,513.5,452.0,587.0,135.0,494.5,534.75,1153.0
465.9512206229317,465.54,19.0,1034.0,19.57162231395241,19.57162231395241,15.7,19.0,1034.0,19.57162231395241,465.54,465.5,427.0,504.0,77.0,450.5,479.75,785.0
564.3551412809102,538.9607843137255,5.0,2591.0,167.38577735915902,167.38577735915902,131.02191464821223,5.0,2591.0,167.38577735915902,538.9607843137255,573.0,1.0,767.0,766.0,457.5,674.0,6682.117647058823
508.6316742004965,508.42,23.0,820.0,14.672545791375128,14.672545791375128,12.1336,23.0,820.0,14.672545791375128,508.42,507.0,469.0,539.0,70.0,498.0,522.0,606.6800000000001
520.6300990146459,520.42,21.0,745.0,14.78930694792694,14.78930694792694,11.350399999999995,21.0,745.0,14.78930694792694,520.42,519.0,491.0,559.0,68.0,512.25,526.75,567.5199999999998
522.343679965595,522.16,25.0,759.0,13.851151576674049,13.851151576674049,10.7536,25.0,759.0,13.85115157667405,522.16,523.0,478.0,555.0,77.0,514.0,531.75,537.6800000000001
519.9831343418746,519.58,15.0,887.0,20.47153145223874,20.47153145223874,16.46,15.0,887.0,20.47153145223874,519.58,519.0,474.0,577.0,103.0,505.0,533.0,823.0
502.5600660617594,501.5,11.0,714.0,32.62468390651471,32.62468390651471,24.46,11.0,714.0,32.62468390651471,501.5,502.0,425.0,578.0,153.0,484.0,522.75,1223.0
562.2777474755003,562.0204081632653,31.0,1141.0,17.009588887422208,17.009588887422208,13.939192003331945,31.0,1141.0,17.009588887422208,562.0204081632653,558.0,530.0,602.0,72.0,550.0,573.0,683.0204081632653
538.7732918398981,518.58,8.0,2836.0,146.12133177602783,146.12133177602783,100.7528,8.0,2836.0,146.12133177602783,518.58,493.5,271.0,1022.0,751.0,441.25,573.25,5037.64
556.0667046317375,556.02,23.0,378.0,7.206913347612833,7.206913347612833,5.699200000000001,23.0,378.0,7.206913347612833,556.02,557.0,535.0,573.0,38.0,551.0,560.75,284.96000000000004
517.4914685287091,517.18,29.0,1011.0,17.95181327888634,17.95181327888634,14.1072,29.0,1011.0,17.95181327888634,517.18,517.0,473.0,560.0,87.0,504.5,528.5,705.3599999999999
547.5888786306749,547.3,19.0,914.0,17.784543851333382,17.784543851333382,14.624000000000006,19.0,914.0,17.784543851333382,547.3,550.5,507.0,584.0,77.0,535.75,560.75,731.2000000000003
523.6496336058207,523.5102040816327,25.0,636.0,12.08325278712377,12.08325278712377,9.74427321949188,25.0,636.0,12.08325278712377,523.5102040816327,525.0,501.0,553.0,52.0,516.0,530.0,477.4693877551021
492.7096305127392,489.82,16.0,2025.0,53.2836522772229,53.2836522772229,42.1144,16.0,2025.0,53.2836522772229,489.82,491.0,338.0,604.0,266.0,461.25,530.0,2105.7200000000003
565.475109973905,565.06,20.0,1067.0,21.663249987017185,21.663249987017185,16.669599999999992,20.0,1067.0,21.663249987017185,565.06,562.0,518.0,615.0,97.0,553.0,576.0,833.4799999999996
496.31459425508353,496.05882352941177,26.0,904.0,15.931731519334372,15.931731519334372,13.077277970011536,26.0,904.0,15.931731519334368,496.05882352941177,497.0,456.0,530.0,74.0,484.0,507.5,666.9411764705883
525.7889880931323,525.3,22.0,1040.0,22.67090646621789,22.67090646621789,17.923999999999996,22.0,1040.0,22.67090646621789,525.3,524.0,476.0,583.0,107.0,512.25,537.0,896.1999999999998
554.9044061818216,554.58,24.0,1096.0,18.971652537404324,18.971652537404324,14.929600000000004,24.0,1096.0,18.971652537404328,554.58,553.5,495.0,602.0,107.0,543.0,567.5,746.4800000000002
522.1439648219637,521.88,20.0,790.0,16.600771066429413,16.600771066429413,12.8304,20.0,790.0,16.600771066429413,521.88,519.0,496.0,578.0,82.0,509.5,528.0,641.52
524.9908189673415,523.12,17.0,1192.0,44.281210462226525,44.281210462226525,31.104000000000006,17.0,1192.0,44.281210462226525,523.12,520.5,421.0,655.0,234.0,505.75,544.75,1555.2000000000005
521.8116135158358,521.48,30.0,1062.0,18.600258062725903,18.600258062725903,15.257600000000002,30.0,1062.0,18.600258062725903,521.48,519.5,485.0,563.0,78.0,506.25,533.75,762.8800000000001
519.5606028174192,519.14,17.0,906.0,20.90168414267137,20.90168414267137,16.551199999999998,17.0,906.0,20.90168414267137,519.14,516.0,463.0,575.0,112.0,506.0,533.75,827.56
507.5807915987365,506.58,7.0,923.0,31.85849337303947,31.85849337303947,27.946399999999997,7.0,923.0,31.85849337303948,506.58,502.5,452.0,582.0,130.0,482.25,532.0,1397.3199999999997
501.95157136919096,501.82,18.0,551.0,11.49206682890419,11.49206682890419,9.464,18.0,551.0,11.49206682890419,501.82,499.0,483.0,532.0,49.0,493.25,509.25,473.19999999999993
530.3549566092505,528.9,14.0,1458.0,39.2577380907255,39.2577380907255,32.06399999999999,14.0,1458.0,39.2577380907255,528.9,532.0,430.0,601.0,171.0,508.5,558.75,1603.1999999999998
520.402805526642,519.8,21.0,1194.0,25.040766761423264,25.040766761423264,19.584,21.0,1194.0,25.04076676142326,519.8,519.0,462.0,595.0,133.0,502.25,534.75,979.1999999999998
500.39202631536807,500.26,19.0,431.0,11.49401583433745,11.49401583433745,9.26,19.0,431.0,11.49401583433745,500.26,501.0,468.0,523.0,55.0,493.25,507.0,463.0
527.1306479422345,525.88,14.0,1041.0,36.28974510795026,36.28974510795026,30.324800000000003,14.0,1041.0,36.28974510795026,525.88,529.0,464.0,597.0,133.0,493.5,559.0,1516.2400000000002
501.49340972738617,501.32,28.0,758.0,13.187023925056025,13.187023925056025,10.7872,28.0,758.0,13.187023925056025,501.32,502.0,474.0,541.0,67.0,492.0,509.75,539.3599999999999
546.7198185542572,546.28,20.0,980.0,21.925364307121555,21.925364307121555,17.3776,20.0,980.0,21.92536430712156,546.28,548.5,490.0,601.0,111.0,530.0,558.5,868.8800000000001
565.1705229397584,564.96,27.0,888.0,15.424603722624449,15.424603722624449,12.241599999999998,27.0,888.0,15.424603722624449,564.96,565.5,531.0,603.0,72.0,554.25,573.5,612.0799999999999
535.2824301245091,535.12,20.0,573.0,13.185810555290107,13.185810555290107,10.0752,20.0,573.0,13.185810555290107,535.12,536.0,504.0,568.0,64.0,529.0,544.0,503.76
526.9960341406755,526.46,20.0,1336.0,23.763173188781,23.763173188781,19.42,20.0,1336.0,23.763173188781,526.46,526.5,481.0,575.0,94.0,511.25,544.75,971.0
519.5492276964716,519.36,24.0,706.0,14.021069859322433,14.021069859322433,10.4432,24.0,706.0,14.021069859322434,519.36,518.0,491.0,559.0,68.0,512.0,525.75,522.1600000000001
501.8993723845449,501.46,24.0,1064.0,20.996390165930904,20.996390165930904,15.878399999999996,24.0,1064.0,20.9963901659309,501.46,501.0,449.0,552.0,103.0,488.0,514.5,793.9199999999998
566.7871734610796,566.46,23.0,840.0,19.255347309254123,19.255347309254123,15.7,23.0,840.0,19.255347309254123,566.46,566.5,530.0,615.0,85.0,551.5,576.75,785.0
551.3526820466188,551.02,20.0,941.0,19.15044646999124,19.15044646999124,14.9792,20.0,941.0,19.15044646999124,551.02,553.0,507.0,598.0,91.0,538.5,562.75,748.96
532.1857758339657,531.94,29.0,963.0,16.172087063826982,16.172087063826982,13.292800000000009,29.0,963.0,16.172087063826982,531.94,529.0,506.0,575.0,69.0,520.25,540.75,664.6400000000003
508.9681325977099,508.64,17.0,924.0,18.27321537113816,18.27321537113816,14.9344,17.0,924.0,18.273215371138164,508.64,509.5,465.0,552.0,87.0,495.25,520.75,746.72
506.8150352939424,506.44,12.0,707.0,19.49375284546308,19.49375284546308,15.467199999999998,12.0,707.0,19.49375284546308,506.44,509.0,450.0,559.0,109.0,491.5,518.75,773.3599999999999
538.7683546757363,518.58,8.0,2850.0,146.1031265921438,146.1031265921438,101.1696,8.0,2850.0,146.1031265921438,518.58,492.5,271.0,1022.0,751.0,445.75,573.25,5058.48
513.844704166541,513.26,22.0,1356.0,24.506170651491026,24.506170651491026,19.8304,22.0,1356.0,24.506170651491026,513.26,512.0,460.0,564.0,104.0,496.5,529.75,991.52
523.5259305898802,523.12,21.0,1194.0,20.61226819154069,20.61226819154069,16.0048,21.0,1194.0,20.61226819154069,523.12,522.0,477.0,592.0,115.0,510.0,534.5,800.24
537.7151104441831,535.82,16.0,1709.0,45.10507288543053,45.10507288543053,34.9,16.0,1709.0,45.10507288543053,535.82,535.5,413.0,619.0,206.0,517.5,569.5,1745.0
510.0605062147039,509.72,19.0,935.0,18.63441976558433,18.63441976558433,15.3312,19.0,935.0,18.63441976558433,509.72,510.5,471.0,558.0,87.0,495.25,523.5,766.56
503.1002882129964,502.74,23.0,971.0,19.036606840506003,19.036606840506003,14.6392,23.0,971.0,19.036606840506003,502.74,502.0,453.0,546.0,93.0,492.25,512.0,731.96
502.1697041486134,501.1960784313725,16.0,1408.0,31.255443201454348,31.255443201454348,25.14878892733564,16.0,1408.0,31.255443201454344,501.1960784313725,496.0,439.0,590.0,151.0,482.5,518.5,1282.5882352941176
501.73756088218073,500.26,26.0,1862.0,38.4774271489142,38.4774271489142,29.072,26.0,1862.0,38.47742714891421,500.26,492.0,438.0,630.0,192.0,473.75,516.75,1453.6
472.6052199008714,472.3877551020408,20.0,670.0,14.33536561114962,14.33536561114962,11.300291545189507,20.0,670.0,14.33536561114962,472.3877551020408,472.0,441.0,501.0,60.0,465.0,483.0,553.7142857142859
521.4218199171514,521.0,23.0,1170.0,20.96936541038583,20.96936541038583,16.775510204081634,23.0,1170.0,20.96936541038583,521.0,523.0,472.0,564.0,92.0,510.0,537.0,822.0
508.0425966392976,506.44,19.0,1657.0,40.321289661914335,40.321289661914335,33.96,19.0,1657.0,40.321289661914335,506.44,506.5,414.0,591.0,177.0,476.25,536.5,1698.0
541.3944403113131,540.38,10.0,1001.0,33.12696182869779,33.12696182869779,26.564799999999995,10.0,1001.0,33.12696182869779,540.38,544.5,454.0,614.0,160.0,520.5,560.0,1328.2399999999998
522.2360002910561,521.36,28.0,1934.0,30.23558168780617,30.23558168780617,24.1824,28.0,1934.0,30.23558168780617,521.36,523.0,461.0,591.0,130.0,499.75,542.75,1209.12
529.5564936812691,529.12,18.0,931.0,21.49664159816598,21.49664159816598,14.6704,18.0,931.0,21.49664159816598,529.12,530.5,444.0,589.0,145.0,517.75,539.0,733.52
516.0075387046201,514.9,9.0,886.0,33.790087303823285,33.790087303823285,29.552000000000007,9.0,886.0,33.79008730382329,514.9,524.0,452.0,582.0,130.0,487.25,544.25,1477.6000000000004
493.58727698351385,492.44,31.0,2118.0,33.63400660046317,33.63400660046317,25.0304,31.0,2118.0,33.63400660046317,492.44,487.5,423.0,612.0,189.0,472.25,508.5,1251.52
525.6687169691572,525.6,23.0,415.0,8.499411744350311,8.499411744350311,6.664000000000001,23.0,415.0,8.499411744350311,525.6,525.0,509.0,552.0,43.0,520.0,530.75,333.20000000000005
536.6906930439543,516.3,7.0,2721.0,146.53057701380962,146.53057701380962,101.748,7.0,2721.0,146.53057701380965,516.3,502.5,271.0,1022.0,751.0,436.75,571.0,5087.4
564.8349139350364,564.6,29.0,906.0,16.288646352597873,16.288646352597873,12.832,29.0,906.0,16.288646352597873,564.6,565.5,526.0,593.0,67.0,553.5,575.25,641.5999999999999
521.2509184644186,521.12,23.0,634.0,11.681849168689006,11.681849168689006,9.0896,23.0,634.0,11.681849168689006,521.12,521.0,498.0,547.0,49.0,515.0,527.75,454.48
510.27786548115137,510.1,21.0,733.0,13.471822445385778,13.471822445385778,10.872000000000003,21.0,733.0,13.471822445385778,510.1,509.0,484.0,540.0,56.0,501.0,518.75,543.6000000000001
510.8393680992098,510.58,13.0,515.0,16.276473819596184,16.276473819596184,13.2136,13.0,515.0,16.276473819596184,510.58,513.0,473.0,539.0,66.0,501.25,522.5,660.6800000000001
520.3596448611287,520.24,27.0,664.0,11.158064348263997,11.158064348263997,9.3296,27.0,664.0,11.158064348263997,520.24,519.5,490.0,539.0,49.0,513.0,529.0,466.48
570.736769448053,563.26,4.0,1321.0,92.07948957286852,92.07948957286852,72.2736,4.0,1321.0,92.07948957286852,563.26,536.5,409.0,785.0,376.0,510.75,608.75,3613.68
495.1937398635003,495.08,31.0,645.0,10.612897813509749,10.612897813509749,8.1664,31.0,645.0,10.612897813509749,495.08,494.0,470.0,522.0,52.0,488.25,501.75,408.32
513.5926011928132,513.0,22.0,1255.0,24.664954895559813,24.664954895559813,18.72,22.0,1255.0,24.664954895559813,513.0,511.0,442.0,575.0,133.0,499.0,525.5,936.0
497.0886238891411,496.94,17.0,585.0,12.15468633902167,12.15468633902167,10.0176,17.0,585.0,12.15468633902167,496.94,496.0,472.0,518.0,46.0,489.0,504.75,500.88
463.1970638939759,462.76,23.0,1078.0,20.11721650726064,20.11721650726064,16.311999999999998,23.0,1078.0,20.11721650726064,462.76,459.5,430.0,519.0,89.0,446.25,474.75,815.5999999999999
570.1625557680898,569.9,21.0,1027.0,17.30115603073968,17.30115603073968,14.144,21.0,1027.0,17.30115603073968,569.9,570.5,533.0,606.0,73.0,557.25,583.5,707.2
564.5687734899974,560.86,6.0,1595.0,64.60619474942013,64.60619474942013,46.832800000000006,6.0,1595.0,64.60619474942011,560.86,540.0,477.0,761.0,284.0,517.5,561.25,2341.6400000000003
509.7563243394648,509.4285714285714,21.0,626.0,18.276783533393687,18.276783533393687,13.241982507288627,21.0,626.0,18.276783533393687,509.4285714285714,512.0,454.0,552.0,98.0,499.0,520.0,648.8571428571428
520.896208471515,520.66,24.0,729.0,15.685164965661023,15.685164965661023,12.566399999999998,24.0,729.0,15.685164965661023,520.66,520.0,489.0,553.0,64.0,509.0,530.75,628.3199999999999
518.1337472120495,517.98,17.0,680.0,12.621394534678013,12.621394534678013,10.462399999999995,17.0,680.0,12.621394534678013,517.98,519.5,487.0,538.0,51.0,510.5,526.75,523.1199999999999
534.8251302996148,534.16,21.0,1183.0,26.66485327167581,26.66485327167581,22.6336,21.0,1183.0,26.66485327167581,534.16,538.5,471.0,588.0,117.0,513.5,553.75,1131.6799999999998
511.5287161548024,510.921568627451,23.0,1213.0,24.91542016995279,24.91542016995279,19.005767012687432,23.0,1213.0,24.91542016995279,510.921568627451,505.0,458.0,580.0,122.0,497.0,518.5,969.294117647059
473.6715317601429,473.32,20.0,896.0,18.245481632448072,18.245481632448072,14.0112,20.0,896.0,18.245481632448072,473.32,472.0,420.0,508.0,88.0,465.0,485.75,700.56
509.2902708672138,508.98,30.0,1047.0,17.77468987071223,17.77468987071223,13.818400000000002,30.0,1047.0,17.774689870712233,508.98,506.5,482.0,555.0,73.0,496.0,516.75,690.9200000000001
515.1981560526008,514.82,15.0,681.0,19.735946898996257,19.735946898996257,16.18,15.0,681.0,19.73594689899626,514.82,514.5,476.0,558.0,82.0,500.25,528.5,809.0
521.9874136413636,521.86,16.0,521.0,11.532579936857148,11.532579936857148,9.1,16.0,521.0,11.532579936857148,521.86,521.0,495.0,550.0,55.0,515.0,529.25,455.0
518.2860883602367,517.8571428571429,15.0,1014.0,21.08195862797944,21.08195862797944,17.32944606413994,15.0,1014.0,21.08195862797944,517.8571428571429,518.0,483.0,580.0,97.0,503.0,533.0,849.1428571428571
520.918266141628,520.64,15.0,643.0,17.024406010196067,17.024406010196067,14.7344,15.0,643.0,17.024406010196067,520.64,521.0,492.0,558.0,66.0,506.0,533.5,736.72
539.712571652727,529.26,9.0,2513.0,105.70483621859503,105.70483621859503,88.0112,9.0,2513.0,105.70483621859503,529.26,511.0,317.0,736.0,419.0,460.75,602.5,4400.56
486.37218259271367,485.78,23.0,1283.0,23.99357413975667,23.99357413975667,19.584000000000007,23.0,1283.0,23.99357413975667,485.78,490.0,434.0,546.0,112.0,466.25,501.25,979.2000000000004
556.8670757011946,556.34,11.0,849.0,24.22280743431694,24.22280743431694,19.34,11.0,849.0,24.222807434316938,556.34,556.0,503.0,615.0,112.0,537.25,571.0,967.0
501.299511270458,501.16,22.0,648.0,11.826005242684444,11.826005242684444,9.652800000000004,22.0,648.0,11.826005242684444,501.16,499.5,472.0,530.0,58.0,494.0,509.75,482.6400000000001
492.0326208697956,491.46,19.0,1215.0,23.7311693770029,23.7311693770029,18.4968,19.0,1215.0,23.731169377002896,491.46,490.0,439.0,535.0,96.0,479.0,510.5,924.84
528.6589070468784,528.28,22.0,1061.0,20.01203637814003,20.01203637814003,16.3488,22.0,1061.0,20.01203637814003,528.28,529.5,490.0,576.0,86.0,515.75,542.75,817.44
488.7315827732028,487.8,21.0,1659.0,30.16156494613633,30.16156494613633,22.312,21.0,1659.0,30.16156494613633,487.8,485.0,415.0,557.0,142.0,473.0,502.75,1115.6
535.4446936892735,535.06,19.0,1035.0,20.29325996482576,20.29325996482576,16.309599999999993,19.0,1035.0,20.29325996482576,535.06,532.0,490.0,581.0,91.0,522.25,550.5,815.4799999999996
468.6293631431987,468.32,25.0,1053.0,17.025204844582635,17.025204844582635,13.6,25.0,1053.0,17.025204844582632,468.32,468.5,430.0,501.0,71.0,455.25,481.75,680.0
507.9360392805377,507.46,10.0,653.0,21.985640768465224,21.985640768465224,15.25760000000001,10.0,653.0,21.985640768465224,507.46,514.0,424.0,539.0,115.0,506.0,519.0,762.8800000000006
556.1267121798772,555.56,18.0,1040.0,25.099928286750146,25.099928286750146,20.995200000000004,18.0,1040.0,25.099928286750146,555.56,558.0,505.0,608.0,103.0,539.25,575.5,1049.7600000000002
522.0968684066205,521.26,30.0,1860.0,29.549152272104184,29.549152272104184,25.14,30.0,1860.0,29.549152272104187,521.26,521.0,465.0,593.0,128.0,496.0,547.5,1257.0
536.7824140189393,533.56,7.0,1291.0,58.72892302775524,58.72892302775524,48.89919999999998,7.0,1291.0,58.72892302775524,533.56,510.0,450.0,655.0,205.0,493.75,567.25,2444.959999999999
554.3142610469263,551.7,8.0,1264.0,53.771832775162125,53.771832775162125,40.05200000000001,8.0,1264.0,53.77183277516213,551.7,541.0,449.0,722.0,273.0,519.25,581.5,2002.6000000000004
518.3302808055884,518.08,25.0,897.0,16.105700854045438,16.105700854045438,11.953599999999996,25.0,897.0,16.105700854045438,518.08,520.0,471.0,570.0,99.0,508.5,525.0,597.6799999999998
497.85911661834615,497.42,25.0,1123.0,20.905587769780595,20.905587769780595,16.230400000000003,25.0,1123.0,20.905587769780592,497.42,495.0,448.0,562.0,114.0,482.75,511.0,811.5200000000002
536.0205593071967,534.24,14.0,1505.0,43.653893297161936,43.653893297161936,33.3392,14.0,1505.0,43.653893297161936,534.24,531.0,413.0,619.0,206.0,517.75,561.0,1666.96
517.0300571533535,515.84,27.0,2298.0,35.059583568547986,35.059583568547986,30.1072,27.0,2298.0,35.059583568547986,515.84,513.5,459.0,576.0,117.0,483.0,546.5,1505.36
510.0639815808625,509.9183673469388,26.0,678.0,12.187040180242787,12.187040180242787,9.273635985006246,26.0,678.0,12.187040180242787,509.9183673469388,510.0,477.0,544.0,67.0,503.0,516.0,454.408163265306
491.5542492950295,489.9,14.0,1289.0,40.293547870595866,40.293547870595866,33.144000000000005,14.0,1289.0,40.293547870595866,489.9,490.5,408.0,567.0,159.0,455.75,518.0,1657.2000000000005
522.3737742268461,522.24,21.0,587.0,11.821268967416316,11.821268967416316,9.3504,21.0,587.0,11.821268967416316,522.24,524.0,496.0,558.0,62.0,513.5,527.75,467.52
490.69271443541936,488.38,9.0,1453.0,47.58482531227786,47.58482531227786,38.3648,9.0,1453.0,47.58482531227786,488.38,491.5,412.0,650.0,238.0,449.0,522.0,1918.24
507.9683257841969,507.58,24.0,1077.0,19.858590080869288,19.858590080869288,15.919199999999996,24.0,1077.0,19.858590080869288,507.58,505.0,473.0,552.0,79.0,491.25,520.25,795.9599999999998
508.8410753860187,508.72,26.0,633.0,11.099621615172294,11.099621615172294,8.2,26.0,633.0,11.099621615172293,508.72,508.5,477.0,547.0,70.0,502.25,515.75,410.0
519.1765980858537,517.02,15.0,1166.0,47.27218632557627,47.27218632557627,33.46,15.0,1166.0,47.27218632557627,517.02,517.5,403.0,662.0,259.0,499.75,536.25,1673.0
505.615703870044,496.0,6.0,1400.0,98.13888118375915,98.13888118375915,80.8,6.0,1400.0,98.13888118375915,496.0,492.5,345.0,719.0,374.0,414.0,547.75,4040.0
543.3636922364396,543.0,18.0,1023.0,19.877173863915527,19.877173863915527,16.612244897959183,18.0,1023.0,19.877173863915527,543.0,547.0,497.0,578.0,81.0,526.0,557.0,814.0
513.1447164299756,511.98,11.0,1058.0,34.554009897550245,34.554009897550245,23.345599999999997,11.0,1058.0,34.55400989755024,511.98,520.0,369.0,554.0,185.0,507.25,530.75,1167.2799999999995
504.7531277763418,504.56,22.0,773.0,13.961604492321074,13.961604492321074,11.737600000000002,22.0,773.0,13.961604492321074,504.56,505.5,468.0,534.0,66.0,494.0,515.75,586.8800000000001
519.7446296018844,518.76,12.0,800.0,31.97721688952933,31.97721688952933,23.3376,12.0,800.0,31.97721688952933,518.76,523.0,428.0,571.0,143.0,508.25,537.0,1166.88
533.7679500398988,533.2448979591836,26.0,1251.0,23.62420983431425,23.62420983431425,18.524781341107865,26.0,1251.0,23.62420983431425,533.2448979591836,533.0,487.0,585.0,98.0,518.0,548.0,907.7142857142852
516.7600398400695,516.4489795918367,23.0,977.0,17.92736048783557,17.92736048783557,13.237817576009997,23.0,977.0,17.92736048783557,516.4489795918367,517.0,469.0,568.0,99.0,509.0,527.0,648.6530612244898
491.9033262267508,491.62745098039215,16.0,639.0,16.472152119965482,16.472152119965482,13.007304882737408,16.0,639.0,16.472152119965482,491.62745098039215,492.0,454.0,530.0,76.0,482.0,501.0,663.3725490196078
494.5686807714374,494.42,20.0,625.0,12.1261535533738,12.1261535533738,9.6768,20.0,625.0,12.1261535533738,494.42,494.0,473.0,522.0,49.0,484.0,501.0,483.84
481.8434600573095,475.32,20.0,2989.0,79.01909642611714,79.01909642611714,57.052800000000005,20.0,2989.0,79.01909642611714,475.32,473.0,188.0,643.0,455.0,438.25,523.75,2852.6400000000003
521.3580535486145,521.1,19.0,752.0,16.401524319403975,16.401524319403975,12.948000000000002,19.0,752.0,16.401524319403975,521.1,520.5,492.0,568.0,76.0,508.25,529.75,647.4000000000001
506.55724256987975,506.44,23.0,575.0,10.897999816480086,10.897999816480086,9.3552,23.0,575.0,10.897999816480086,506.44,505.5,486.0,525.0,39.0,498.25,515.5,467.76
522.794778091748,522.58,10.0,551.0,14.98411158527592,14.98411158527592,11.9968,10.0,551.0,14.98411158527592,522.58,523.0,492.0,559.0,67.0,512.25,532.75,599.8399999999999
500.9668651717397,500.84,22.0,615.0,11.273615214295722,11.273615214295722,9.020799999999998,22.0,615.0,11.273615214295722,500.84,499.0,483.0,532.0,49.0,493.0,507.0,451.0399999999999
527.6558158496881,527.58,25.0,463.0,8.944473153853167,8.944473153853167,6.729600000000005,25.0,463.0,8.944473153853167,527.58,526.0,512.0,563.0,51.0,521.0,532.0,336.48000000000025
519.3624168150792,519.0,15.0,686.0,19.398969044771427,19.398969044771427,16.52,15.0,686.0,19.398969044771427,519.0,517.0,476.0,558.0,82.0,504.5,533.5,826.0
510.3748622336331,510.06,22.0,974.0,17.92474267597725,17.92474267597725,14.3848,22.0,974.0,17.92474267597725,510.06,507.5,471.0,558.0,87.0,497.0,521.5,719.24
549.7303973803173,549.4705882352941,23.0,930.0,16.899185432482543,16.899185432482543,13.695501730103809,23.0,930.0,16.899185432482543,549.4705882352941,549.0,516.0,588.0,72.0,538.0,562.5,698.4705882352941
531.6156318243474,531.46,25.0,670.0,12.862674682973212,12.862674682973212,10.496800000000002,25.0,670.0,12.86267468297321,531.46,529.0,506.0,562.0,56.0,523.25,541.0,524.8400000000001
504.7097779912729,503.92,16.0,1169.0,28.223989795916523,28.223989795916523,22.3968,16.0,1169.0,28.223989795916523,503.92,502.0,443.0,577.0,134.0,486.25,519.75,1119.84
495.0799127413674,494.52,27.0,1329.0,23.53910788453972,23.53910788453972,18.7008,27.0,1329.0,23.53910788453972,494.52,491.0,438.0,563.0,125.0,479.25,509.0,935.04
522.153598091596,520.98,10.0,963.0,34.98884965242498,34.98884965242498,29.2568,10.0,963.0,34.98884965242498,520.98,516.5,457.0,601.0,144.0,495.0,546.25,1462.84
503.2427048651575,502.62,16.0,992.0,25.027097314710705,25.027097314710705,19.82,16.0,992.0,25.027097314710705,502.62,502.0,443.0,574.0,131.0,487.25,518.5,991.0
523.1654613982081,522.3,34.0,1980.0,30.080059840366008,30.080059840366008,23.62400000000001,34.0,1980.0,30.080059840366008,522.3,524.5,461.0,591.0,130.0,499.75,541.75,1181.2000000000005
500.2049579922214,499.16,7.0,647.0,32.31554424731231,32.31554424731231,25.295999999999985,7.0,647.0,32.31554424731231,499.16,513.0,416.0,539.0,123.0,488.75,517.75,1264.7999999999993
620.4195515939193,594.46,1.0,2158.0,177.58864941206124,177.58864941206124,158.0232,1.0,2158.0,177.58864941206124,594.46,617.5,341.0,958.0,617.0,421.0,726.75,7901.16
480.8037229473166,479.54,11.0,989.0,34.836882753771185,34.836882753771185,27.8384,11.0,989.0,34.836882753771185,479.54,483.0,404.0,556.0,152.0,455.5,497.25,1391.9199999999998
507.5458008889444,503.94,9.0,1288.0,60.392188236559214,60.392188236559214,48.9824,9.0,1288.0,60.392188236559214,503.94,510.0,353.0,601.0,248.0,464.75,551.75,2449.12
512.0905532167895,511.83673469387753,22.0,823.0,16.12115727194408,16.12115727194408,13.282798833819236,22.0,823.0,16.12115727194408,511.83673469387753,508.0,483.0,548.0,65.0,502.0,523.0,650.8571428571427
529.0017580311052,528.58,21.0,910.0,21.11974431663414,21.11974431663414,17.533599999999996,21.0,910.0,21.119744316634137,528.58,529.5,486.0,571.0,85.0,511.0,544.0,876.6799999999998
509.8622559083973,509.6,20.0,803.0,16.351146748775758,16.351146748775758,14.087999999999996,20.0,803.0,16.351146748775758,509.6,512.0,480.0,547.0,67.0,496.5,523.75,704.3999999999999
533.6002248875088,532.88,15.0,1088.0,27.714718111501696,27.714718111501696,22.496,15.0,1088.0,27.714718111501696,532.88,530.0,485.0,614.0,129.0,515.0,553.75,1124.8000000000002
493.913737407657,490.66,16.0,1881.0,56.59986219064495,56.59986219064495,40.10079999999999,16.0,1881.0,56.59986219064496,490.66,496.5,275.0,580.0,305.0,477.5,525.75,2005.0399999999995
515.4136397108637,515.26,24.0,657.0,12.583815001818804,12.583815001818804,10.1104,24.0,657.0,12.583815001818806,515.26,514.0,485.0,545.0,60.0,508.0,522.75,505.52
492.9668548695744,489.68,5.0,1503.0,56.83148423189385,56.83148423189385,50.3744,5.0,1503.0,56.83148423189386,489.68,474.5,394.0,598.0,204.0,443.75,535.25,2518.72
494.19724807003934,494.04,21.0,654.0,12.46588945883927,12.46588945883927,10.7632,21.0,654.0,12.46588945883927,494.04,492.0,472.0,521.0,49.0,484.0,504.75,538.1600000000001
538.6603025735491,534.0588235294117,12.0,1810.0,70.25734537404664,70.25734537404664,55.00576701268742,12.0,1810.0,70.25734537404664,534.0588235294117,525.0,367.0,689.0,322.0,493.0,568.5,2805.2941176470586
506.5831422382707,506.4,25.0,722.0,13.620572675185135,13.620572675185135,10.271999999999998,25.0,722.0,13.620572675185135,506.4,505.0,474.0,549.0,75.0,496.25,513.0,513.5999999999999
518.2509801547629,517.2941176470588,12.0,771.0,31.478155586428727,31.478155586428727,23.1049596309112,12.0,771.0,31.478155586428723,517.2941176470588,522.0,428.0,571.0,143.0,507.0,534.0,1178.352941176471
543.3842839096471,543.04,22.0,987.0,19.340072388695965,19.340072388695965,16.15040000000001,22.0,987.0,19.340072388695965,543.04,548.0,497.0,578.0,81.0,526.5,556.5,807.5200000000004
398.9223232660714,394.86,3.0,1106.0,56.7855650671894,56.7855650671894,47.81360000000001,3.0,1106.0,56.7855650671894,394.86,417.5,260.0,498.0,238.0,351.75,436.5,2390.6800000000003
515.66859710556,515.4081632653061,26.0,914.0,16.386802015642804,16.386802015642804,12.743023740108288,26.0,914.0,16.386802015642804,515.4081632653061,514.0,482.0,563.0,81.0,504.0,526.0,624.4081632653061
501.8958457688208,501.76,27.0,688.0,11.676574840251742,11.676574840251742,8.931199999999999,27.0,688.0,11.676574840251742,501.76,500.0,480.0,531.0,51.0,495.25,506.25,446.56
508.7681986917028,508.6,20.0,573.0,13.081284340614266,13.081284340614266,10.368000000000002,20.0,573.0,13.081284340614264,508.6,506.5,475.0,534.0,59.0,501.25,515.75,518.4000000000001
479.41439277518566,478.68,18.0,1075.0,26.52579122288344,26.52579122288344,19.4128,18.0,1075.0,26.52579122288344,478.68,480.5,408.0,532.0,124.0,468.0,493.5,970.64
489.13711779009367,488.8,28.0,1094.0,18.15709227822561,18.15709227822561,15.376,28.0,1094.0,18.15709227822561,488.8,490.5,456.0,522.0,66.0,477.0,504.5,768.8
519.7558100116019,519.4081632653061,27.0,1073.0,19.006892807016776,19.006892807016776,14.57975843398584,27.0,1073.0,19.006892807016776,519.4081632653061,519.0,471.0,566.0,95.0,510.0,529.0,714.4081632653061
519.7262933506443,519.3,25.0,1234.0,21.0459022139703,21.0459022139703,17.671999999999997,25.0,1234.0,21.0459022139703,519.3,515.5,473.0,565.0,92.0,504.0,535.0,883.5999999999999
518.545774257201,517.8,28.0,1850.0,27.800719415151832,27.800719415151832,22.96,28.0,1850.0,27.80071941515183,517.8,515.5,465.0,584.0,119.0,502.25,535.5,1148.0
523.3104241270185,523.04,15.0,646.0,16.821367364159194,16.821367364159194,13.163199999999996,15.0,646.0,16.821367364159194,523.04,522.0,493.0,563.0,70.0,512.0,532.0,658.1599999999999
502.50500495019946,502.12,20.0,884.0,19.666865535717683,19.666865535717683,15.0496,20.0,884.0,19.666865535717683,502.12,500.0,455.0,559.0,104.0,488.75,515.0,752.48
555.8498898083906,555.82,20.0,295.0,5.764338643764782,5.764338643764782,4.968799999999992,20.0,295.0,5.764338643764781,555.82,557.0,543.0,567.0,24.0,551.0,560.0,248.4399999999996
500.2799616214905,499.64,23.0,1521.0,25.29645034387236,25.29645034387236,19.08,23.0,1521.0,25.29645034387236,499.64,499.5,442.0,564.0,122.0,485.75,512.0,954.0
499.12073710083575,496.8571428571428,10.0,1535.0,47.48146792084641,47.48146792084641,38.89212827988338,10.0,1535.0,47.48146792084641,496.8571428571428,489.0,396.0,591.0,195.0,469.0,527.0,1905.7142857142856
541.2180706517476,540.76,18.0,1030.0,22.262578467015,22.262578467015,18.4192,18.0,1030.0,22.262578467015,540.76,542.0,489.0,594.0,105.0,523.0,558.5,920.96
516.0058526799866,515.92,18.0,451.0,9.412417330314248,9.412417330314248,7.289600000000004,18.0,451.0,9.41241733031425,515.92,516.5,495.0,539.0,44.0,511.0,522.0,364.48000000000025
521.637062036236,520.8571428571429,31.0,1785.0,28.51422845685634,28.51422845685634,23.516034985422746,31.0,1785.0,28.514228456856337,520.8571428571429,519.0,470.0,587.0,117.0,497.0,539.0,1152.2857142857144
515.4206543983197,515.2352941176471,29.0,849.0,13.821818834505354,13.821818834505354,11.132641291810842,29.0,849.0,13.821818834505356,515.2352941176471,517.0,471.0,547.0,76.0,505.5,523.5,567.7647058823529
504.486503935498,504.3469387755102,22.0,700.0,11.86583333917118,11.86583333917118,9.594335693461051,22.0,700.0,11.86583333917118,504.3469387755102,503.0,480.0,531.0,51.0,496.0,513.0,470.1224489795917
513.7072317964776,513.36,25.0,973.0,18.884660441744774,18.884660441744774,15.7488,25.0,973.0,18.884660441744774,513.36,510.0,473.0,547.0,74.0,501.25,528.75,787.44
516.0916391494828,515.62,12.0,836.0,22.05891203119501,22.05891203119501,18.2848,12.0,836.0,22.05891203119501,515.62,514.0,468.0,562.0,94.0,500.25,530.75,914.24
506.3332696949708,506.14,20.0,690.0,13.988581057419657,13.988581057419657,10.7224,20.0,690.0,13.988581057419657,506.14,504.0,478.0,547.0,69.0,497.0,513.5,536.1199999999999
558.4409548018483,558.26,29.0,907.0,14.215217198481351,14.215217198481351,11.388800000000002,29.0,907.0,14.215217198481351,558.26,560.5,526.0,593.0,67.0,549.25,566.75,569.44
491.7481469207586,490.92,19.0,1296.0,28.527067847922964,28.527067847922964,22.7632,19.0,1296.0,28.52706784792296,490.92,491.5,428.0,556.0,128.0,470.0,508.5,1138.16
496.122824654195,495.0816326530612,14.0,1256.0,32.125288363475974,32.125288363475974,26.72636401499376,14.0,1256.0,32.125288363475974,495.0816326530612,498.0,420.0,547.0,127.0,470.0,522.0,1309.591836734694
540.8454122944929,537.88,12.0,1306.0,56.558514831986166,56.558514831986166,44.52,12.0,1306.0,56.558514831986166,537.88,537.0,417.0,662.0,245.0,507.0,583.25,2226.0
520.9194563461803,520.56,25.0,1120.0,19.34855033329371,19.34855033329371,14.982399999999998,25.0,1120.0,19.348550333293705,520.56,517.0,482.0,579.0,97.0,507.25,529.75,749.1199999999999
472.7489185603707,472.62,17.0,436.0,11.039728257525184,11.039728257525184,9.0296,17.0,436.0,11.039728257525184,472.62,472.0,452.0,499.0,47.0,465.0,479.75,451.48
518.1214722437201,517.82,23.0,885.0,17.672226798001436,17.672226798001436,13.907199999999998,23.0,885.0,17.672226798001436,517.82,518.5,471.0,554.0,83.0,506.5,527.75,695.3599999999999
536.6714264799273,534.74,15.0,1163.0,45.49013519434735,45.49013519434735,30.5784,15.0,1163.0,45.49013519434735,534.74,528.0,464.0,684.0,220.0,503.5,541.25,1528.92
521.3672985525656,521.06,21.0,831.0,17.897944016003624,17.897944016003624,14.1,21.0,831.0,17.897944016003624,521.06,521.5,485.0,574.0,89.0,509.0,531.0,705.0
506.7542797056577,506.42,27.0,940.0,18.40335838916365,18.40335838916365,15.1336,27.0,940.0,18.40335838916365,506.42,503.5,476.0,546.0,70.0,493.25,520.5,756.6800000000001
483.3663000251466,482.94,26.0,969.0,20.29621639616606,20.29621639616606,15.5048,26.0,969.0,20.29621639616606,482.94,486.0,420.0,530.0,110.0,474.25,498.0,775.24
527.3682963546444,527.32,26.0,386.0,7.137058217501102,7.137058217501102,5.651200000000008,26.0,386.0,7.137058217501101,527.32,527.0,515.0,547.0,32.0,523.0,532.0,282.5600000000004
529.074531611568,528.42,24.0,1484.0,26.309002261583387,26.309002261583387,20.7064,24.0,1484.0,26.30900226158339,528.42,530.0,455.0,591.0,136.0,511.0,546.75,1035.3200000000002
519.0867942839617,515.42,11.0,1248.0,61.58996346808463,61.58996346808463,49.1568,11.0,1248.0,61.58996346808464,515.42,513.5,403.0,662.0,259.0,471.0,556.0,2457.84
296.7457160600638,288.66,1.0,863.0,68.79988662781358,68.79988662781358,60.2488,1.0,863.0,68.79988662781356,288.66,320.5,154.0,374.0,220.0,224.5,342.5,3012.44
522.054020193313,520.32,14.0,1571.0,42.51467511342407,42.51467511342407,34.47840000000001,14.0,1571.0,42.51467511342407,520.32,515.0,434.0,611.0,177.0,493.5,546.75,1723.9200000000003
518.9912727363251,518.6078431372549,16.0,921.0,19.946082647853487,19.946082647853487,15.850826605151864,16.0,921.0,19.946082647853487,518.6078431372549,520.0,474.0,577.0,103.0,504.0,531.5,808.3921568627451
475.84739150278,475.34,23.0,1125.0,21.96871411803613,21.96871411803613,17.926400000000005,23.0,1125.0,21.96871411803613,475.34,478.0,425.0,514.0,89.0,461.75,494.75,896.3200000000002
504.6954527237193,504.38,28.0,1068.0,17.841401290257444,17.841401290257444,14.0944,28.0,1068.0,17.841401290257448,504.38,506.5,454.0,539.0,85.0,491.5,516.0,704.72
474.2407194663908,472.42,13.0,1296.0,41.51630523059585,41.51630523059585,32.3,13.0,1296.0,41.51630523059585,472.42,472.5,353.0,555.0,202.0,446.25,495.5,1615.0
524.683561777954,523.84,26.0,1714.0,29.740450568207606,29.740450568207606,23.5264,26.0,1714.0,29.740450568207603,523.84,525.0,457.0,584.0,127.0,505.5,541.0,1176.3200000000002
497.4400667417131,497.3,20.0,557.0,11.803812943282352,11.803812943282352,8.968,20.0,557.0,11.803812943282352,497.3,498.0,476.0,527.0,51.0,490.0,502.0,448.4
517.802684427186,517.62,20.0,688.0,13.753385037873402,13.753385037873402,10.7648,20.0,688.0,13.753385037873404,517.62,517.0,487.0,551.0,64.0,510.0,527.0,538.24
469.6834252983599,469.6,13.0,307.0,8.85211839053229,8.85211839053229,7.127999999999997,13.0,307.0,8.852118390532292,469.6,470.0,454.0,492.0,38.0,463.0,474.75,356.39999999999986
512.6042528110745,511.64,16.0,1288.0,31.42658746984788,31.42658746984788,24.025599999999997,16.0,1288.0,31.426587469847885,511.64,511.0,438.0,580.0,142.0,496.75,530.0,1201.2799999999995
569.8347304262877,569.54,23.0,935.0,18.32507571607823,18.32507571607823,14.94,23.0,935.0,18.325075716078228,569.54,569.5,530.0,615.0,85.0,557.0,581.75,747.0
522.4913546521842,522.3529411764706,22.0,611.0,12.025827645745103,12.025827645745103,9.640138408304498,22.0,611.0,12.025827645745103,522.3529411764706,524.0,496.0,558.0,62.0,513.0,530.0,491.6470588235294
511.3730927610486,510.56,20.0,1481.0,28.825794004675743,28.825794004675743,24.4576,20.0,1481.0,28.825794004675743,510.56,515.0,452.0,559.0,107.0,487.0,534.25,1222.88
541.3461867211693,541.1224489795918,25.0,955.0,15.56242551404022,15.56242551404022,13.390254060807996,25.0,955.0,15.562425514040218,541.1224489795918,541.0,504.0,572.0,68.0,529.0,555.0,656.1224489795918
499.2259007703827,499.14,22.0,502.0,9.260691118917636,9.260691118917636,7.156799999999999,22.0,502.0,9.260691118917636,499.14,498.0,476.0,522.0,46.0,493.0,504.5,357.8399999999999
466.6009215593128,466.54,14.0,236.0,7.539787795422361,7.539787795422361,6.14,14.0,236.0,7.539787795422361,466.54,466.5,454.0,483.0,29.0,460.0,471.0,307.0
521.7403377159945,521.38,18.0,1033.0,19.387511444226156,19.387511444226156,15.4104,18.0,1033.0,19.387511444226156,521.38,520.5,473.0,560.0,87.0,509.0,536.25,770.52
574.1982061971285,573.98,31.0,1010.0,15.828442753473883,15.828442753473883,13.2216,31.0,1010.0,15.828442753473889,573.98,574.5,542.0,606.0,64.0,562.25,585.0,661.0799999999999
503.51844057591376,502.86,18.0,1253.0,25.74180257868512,25.74180257868512,21.2144,18.0,1253.0,25.74180257868512,502.86,502.0,438.0,554.0,116.0,482.5,520.0,1060.72
522.663218526041,522.32,21.0,943.0,18.93825757560605,18.93825757560605,14.6,21.0,943.0,18.93825757560605,522.32,522.5,485.0,588.0,103.0,509.25,531.75,730.0
503.6642532481336,503.08,15.0,1071.0,24.252702942146467,24.252702942146467,19.4368,15.0,1071.0,24.25270294214647,503.08,504.5,446.0,545.0,99.0,487.0,523.0,971.84
482.0532750640742,481.24,16.0,1172.0,27.98968381386257,27.98968381386257,21.0208,16.0,1172.0,27.98968381386257,481.24,483.0,408.0,534.0,126.0,468.25,495.75,1051.04
508.0510407429553,507.78,17.0,712.0,16.593119055801413,16.593119055801413,13.388800000000002,17.0,712.0,16.593119055801413,507.78,508.0,478.0,547.0,69.0,495.25,518.0,669.44
517.3365249042445,517.16,29.0,772.0,13.513489556735522,13.513489556735522,10.36,29.0,772.0,13.51348955673552,517.16,517.5,477.0,548.0,71.0,508.0,526.25,518.0
520.6766366949836,520.36,18.0,869.0,18.1557263693855,18.1557263693855,13.9056,18.0,869.0,18.1557263693855,520.36,521.0,481.0,563.0,82.0,508.75,529.0,695.28
503.19829093509446,503.0,11.0,624.0,14.12515486640766,14.12515486640766,11.2,11.0,624.0,14.12515486640766,503.0,504.0,466.0,532.0,66.0,493.25,511.0,560.0
544.3290732635912,542.02,10.0,1191.0,50.08452455599434,50.08452455599434,40.7016,10.0,1191.0,50.08452455599434,542.02,538.5,463.0,655.0,192.0,503.75,570.25,2035.08
522.0388682847284,521.54,14.0,898.0,22.81684465477205,22.81684465477205,17.293600000000005,14.0,898.0,22.81684465477205,521.54,525.5,444.0,589.0,145.0,509.5,536.25,864.6800000000003
500.03191898117865,478.32,3.0,2505.0,145.7460037187984,145.7460037187984,107.97440000000002,3.0,2505.0,145.7460037187984,478.32,486.0,1.0,703.0,702.0,424.5,568.25,5398.720000000001
521.808585594373,521.32,30.0,1302.0,22.575597445029,22.575597445029,17.838400000000007,30.0,1302.0,22.575597445029,521.32,517.5,479.0,591.0,112.0,507.25,534.25,891.9200000000003
501.9515912914312,501.16,24.0,1556.0,28.17897088255708,28.17897088255708,21.425600000000003,24.0,1556.0,28.17897088255708,501.16,498.5,454.0,583.0,129.0,482.25,514.5,1071.2800000000002
501.7499576482294,501.54,26.0,844.0,14.513731429236246,14.513731429236246,11.521600000000005,26.0,844.0,14.513731429236246,501.54,500.0,480.0,547.0,67.0,491.0,510.0,576.0800000000002
504.7191803175229,504.078431372549,22.0,1318.0,25.424122509588116,25.424122509588116,19.69088811995386,22.0,1318.0,25.42412250958812,504.078431372549,502.0,438.0,573.0,135.0,487.5,520.0,1004.2352941176468
518.8483208029106,518.02,23.0,1437.0,29.30630648853588,29.30630648853588,20.9032,23.0,1437.0,29.30630648853588,518.02,514.5,469.0,637.0,168.0,500.0,531.0,1045.16
231.034153319374,223.94,4.0,1157.0,56.81246694168455,56.81246694168455,46.2976,4.0,1157.0,56.81246694168455,223.94,222.0,97.0,330.0,233.0,191.5,262.25,2314.88
523.6069709238027,523.46,15.0,588.0,12.405176338932067,12.405176338932067,9.918400000000002,15.0,588.0,12.405176338932067,523.46,523.0,495.0,555.0,60.0,513.5,533.0,495.9200000000001
638.5360913840344,614.18,3.0,2134.0,174.6747480318778,174.6747480318778,148.69680000000005,3.0,2134.0,174.6747480318778,614.18,671.0,341.0,958.0,617.0,421.0,726.75,7434.840000000002
588.1863650238757,587.92,20.0,927.0,17.699536717100816,17.699536717100816,14.323200000000002,20.0,927.0,17.699536717100816,587.92,588.0,551.0,625.0,74.0,577.0,602.5,716.1600000000001
495.3649361834162,495.26,24.0,579.0,10.195704978077778,10.195704978077778,8.040799999999999,24.0,579.0,10.195704978077778,495.26,494.0,470.0,518.0,48.0,489.25,502.5,402.04
520.4890776952001,519.88,23.0,1228.0,25.17271538789568,25.17271538789568,19.5152,23.0,1228.0,25.17271538789568,519.88,519.0,462.0,595.0,133.0,502.25,534.75,975.76
508.4236342232083,508.2244897959184,14.0,556.0,14.228837212265844,14.228837212265844,10.746355685131196,14.0,556.0,14.228837212265844,508.2244897959184,506.0,474.0,549.0,75.0,500.0,516.0,526.5714285714287
508.7660366022874,508.52,20.0,708.0,15.820543606336669,15.820543606336669,12.7408,20.0,708.0,15.820543606336663,508.52,507.5,478.0,547.0,69.0,496.25,518.0,637.04
511.5045063340106,511.22,29.0,1027.0,17.057889670179016,17.057889670179016,12.788800000000002,29.0,1027.0,17.057889670179016,511.22,510.5,477.0,567.0,90.0,502.5,521.75,639.44
523.1020932858136,522.84,20.0,747.0,16.557004560004202,16.557004560004202,12.827200000000005,20.0,747.0,16.557004560004202,522.84,520.0,498.0,578.0,80.0,511.25,529.5,641.3600000000001
514.7353494758253,513.6,21.0,1524.0,34.16899179080354,34.16899179080354,25.544000000000004,21.0,1524.0,34.168991790803545,513.6,512.0,435.0,637.0,202.0,490.5,531.25,1277.2000000000005
530.1695067451097,529.7843137254902,17.0,977.0,20.2061083032909,20.2061083032909,15.87543252595156,17.0,977.0,20.206108303290897,529.7843137254902,531.0,484.0,570.0,86.0,518.5,542.0,809.6470588235295
399.1219955689473,398.4489795918368,23.0,1183.0,23.168470151541054,23.168470151541054,18.07246980424823,23.0,1183.0,23.168470151541054,398.4489795918368,399.0,338.0,449.0,111.0,386.0,413.0,885.5510204081633
504.8296742466711,504.64,19.0,721.0,13.83728297029442,13.83728297029442,11.4544,19.0,721.0,13.83728297029442,504.64,505.0,474.0,537.0,63.0,494.25,515.25,572.72
522.652255328531,522.34,26.0,1022.0,18.063897696787368,18.063897696787368,14.34,26.0,1022.0,18.063897696787368,522.34,522.0,484.0,566.0,82.0,511.25,533.0,717.0
520.3715595610506,520.24,21.0,501.0,11.700529902530056,11.700529902530056,8.619200000000001,21.0,501.0,11.700529902530056,520.24,520.0,498.0,559.0,61.0,513.5,525.75,430.96
523.7593149529658,523.34,22.0,1165.0,20.95386360555017,20.95386360555017,17.351999999999993,22.0,1165.0,20.95386360555017,523.34,526.5,469.0,561.0,92.0,510.5,537.75,867.5999999999997
522.718521827211,522.4489795918367,23.0,812.0,16.784420891798824,16.784420891798824,13.06622240733028,23.0,812.0,16.784420891798824,522.4489795918367,519.0,496.0,578.0,82.0,511.0,531.0,640.2448979591837
527.1159110418404,526.6938775510204,22.0,968.0,21.08893130862985,21.08893130862985,15.66847147022075,22.0,968.0,21.08893130862985,526.6938775510204,529.0,459.0,575.0,116.0,514.0,538.0,767.7551020408167
512.0434651512327,511.6122448979592,10.0,753.0,21.010023192568585,21.010023192568585,16.68388171595168,10.0,753.0,21.010023192568585,511.6122448979592,510.0,468.0,562.0,94.0,500.0,529.0,817.5102040816324
505.4702562960555,505.06,18.0,676.0,20.36114927993997,20.36114927993997,15.403200000000002,18.0,676.0,20.36114927993997,505.06,509.5,448.0,534.0,86.0,497.25,518.75,770.1600000000001
514.7097434477027,514.0,25.0,1445.0,27.020732780589057,27.020732780589057,20.36,25.0,1445.0,27.020732780589057,514.0,510.5,450.0,608.0,158.0,498.5,526.75,1018.0
523.7707704712053,523.66,26.0,562.0,10.77146229627157,10.77146229627157,8.072799999999997,26.0,562.0,10.77146229627157,523.66,522.5,501.0,549.0,48.0,518.0,527.75,403.6399999999999
472.2070308667587,468.12,13.0,1481.0,61.99310929450143,61.99310929450143,52.07040000000001,13.0,1481.0,61.99310929450143,468.12,472.0,341.0,563.0,222.0,424.5,518.75,2603.5200000000004
517.3429616801604,517.02,23.0,970.0,18.277297393214347,18.277297393214347,15.5392,23.0,970.0,18.27729739321435,517.02,520.5,479.0,555.0,76.0,505.0,530.0,776.96
510.6804676115976,510.3,21.0,1004.0,19.70913493789111,19.70913493789111,15.58,21.0,1004.0,19.709134937891108,510.3,510.5,460.0,547.0,87.0,496.0,524.0,779.0
528.507254791594,527.9591836734694,20.0,1086.0,24.062808277313643,24.062808277313643,19.21699291961683,20.0,1086.0,24.06280827731364,527.9591836734694,524.0,487.0,583.0,96.0,511.0,543.0,941.6326530612246
402.22314702165016,401.18,21.0,1407.0,28.949397230339702,28.949397230339702,22.74,21.0,1407.0,28.949397230339702,401.18,402.5,338.0,485.0,147.0,380.0,414.75,1137.0
524.0976112542863,523.9795918367347,27.0,558.0,11.121756203850746,11.121756203850746,8.389004581424405,27.0,558.0,11.121756203850746,523.9795918367347,524.0,496.0,558.0,62.0,516.0,530.0,411.0612244897959
507.9254669732558,507.24,32.0,1709.0,26.379203930369087,26.379203930369087,21.3392,32.0,1709.0,26.379203930369087,507.24,506.0,459.0,574.0,115.0,488.0,522.25,1066.96
559.4099212563181,559.38,18.0,241.0,5.785810228481401,5.785810228481401,4.6352,18.0,241.0,5.785810228481401,559.38,559.0,541.0,572.0,31.0,555.25,563.0,231.76
512.9286858177205,512.204081632653,12.0,1033.0,27.25464168805667,27.25464168805667,20.257392753019573,12.0,1033.0,27.25464168805667,512.204081632653,511.0,435.0,587.0,152.0,496.0,524.0,992.612244897959
496.6883932608049,496.44,26.0,869.0,15.7062535316351,15.7062535316351,13.057600000000004,26.0,869.0,15.7062535316351,496.44,495.0,465.0,528.0,63.0,485.0,510.0,652.8800000000001
513.8547070914112,513.26,25.0,1318.0,24.715023770977847,24.715023770977847,20.0512,25.0,1318.0,24.715023770977847,513.26,510.5,457.0,564.0,107.0,496.0,529.75,1002.56
513.6732464141311,513.5102040816327,20.0,709.0,12.941189499912149,12.941189499912149,10.071636817992504,20.0,709.0,12.941189499912149,513.5102040816327,513.0,486.0,548.0,62.0,503.0,521.0,493.5102040816327
518.629848736071,518.36,19.0,813.0,16.728131993740362,16.728131993740362,14.08,19.0,813.0,16.728131993740366,518.36,518.5,477.0,550.0,73.0,503.25,533.0,704.0
513.1006139150488,512.8,28.0,1050.0,17.561321134812154,17.561321134812154,13.503999999999996,28.0,1050.0,17.561321134812154,512.8,512.0,487.0,562.0,75.0,498.5,522.0,675.1999999999998
539.6480890358085,536.94,9.0,1245.0,53.9953368356935,53.9953368356935,44.6152,9.0,1245.0,53.99533683569352,536.94,532.0,460.0,655.0,195.0,490.5,576.5,2230.76
523.5782272020103,523.04,23.0,1350.0,23.73432956710596,23.73432956710596,19.676800000000004,23.0,1350.0,23.73432956710596,523.04,527.0,475.0,570.0,95.0,507.25,540.75,983.84
498.9408181337743,498.26,27.0,1448.0,26.05594749764437,26.05594749764437,21.8096,27.0,1448.0,26.05594749764437,498.26,499.0,438.0,552.0,114.0,476.0,517.75,1090.48
520.3605480818084,519.94,17.0,1031.0,20.916414606714984,20.916414606714984,17.06,17.0,1031.0,20.916414606714984,519.94,519.0,483.0,580.0,97.0,505.25,533.75,853.0
533.2623931986955,527.58,2.0,1583.0,77.64099175049222,77.64099175049222,63.30880000000001,2.0,1583.0,77.64099175049222,527.58,499.5,415.0,722.0,307.0,474.25,564.0,3165.4400000000005
514.0426441454056,513.96,26.0,556.0,9.217288104426377,9.217288104426377,7.878400000000002,26.0,556.0,9.217288104426377,513.96,513.0,496.0,532.0,36.0,507.0,520.75,393.9200000000001
526.0720292887657,524.98,30.0,2131.0,33.87889608591165,33.87889608591165,26.5784,30.0,2131.0,33.87889608591165,524.98,521.0,467.0,640.0,173.0,500.5,547.0,1328.92
489.0446605372561,488.6,24.0,1148.0,20.84994004787544,20.84994004787544,16.76,24.0,1148.0,20.84994004787544,488.6,487.0,445.0,536.0,91.0,474.5,502.75,838.0
520.8164935944329,520.5,25.0,908.0,18.15406290613757,18.15406290613757,14.44,25.0,908.0,18.15406290613757,520.5,519.5,492.0,574.0,82.0,506.0,532.75,722.0
523.8817042042983,523.48,24.0,1022.0,20.511694225490004,20.511694225490004,15.8816,24.0,1022.0,20.511694225490007,523.48,524.0,476.0,583.0,107.0,513.0,534.0,794.0799999999999
513.7554865887079,513.06,20.0,1347.0,26.72333063074287,26.72333063074287,20.55199999999999,20.0,1347.0,26.723330630742865,513.06,509.0,447.0,580.0,133.0,497.5,528.75,1027.5999999999997
478.9444644215026,478.64,25.0,925.0,17.074846997850376,17.074846997850376,14.036799999999998,25.0,925.0,17.074846997850376,478.64,476.0,442.0,516.0,74.0,468.0,488.75,701.8399999999999
518.857610525277,518.54,24.0,957.0,18.15181533621362,18.15181533621362,14.164799999999996,24.0,957.0,18.15181533621362,518.54,517.0,478.0,562.0,84.0,506.5,529.5,708.2399999999998
502.3521474025965,502.2,24.0,616.0,12.362847568420472,12.362847568420472,8.832,24.0,616.0,12.362847568420474,502.2,503.0,471.0,530.0,59.0,499.0,509.0,441.6
510.9189599862872,510.4285714285714,18.0,981.0,22.379837864853776,22.379837864853776,18.22740524781341,18.0,981.0,22.37983786485378,510.4285714285714,509.0,449.0,559.0,110.0,495.0,526.0,893.1428571428572
524.5922225881737,504.4,5.0,2598.0,144.14451082160568,144.14451082160568,98.82399999999998,5.0,2598.0,144.14451082160568,504.4,515.5,1.0,797.0,796.0,447.0,561.75,4941.199999999999
504.2765114498196,504.04,14.0,683.0,15.442745869825094,15.442745869825094,12.526400000000002,14.0,683.0,15.442745869825094,504.04,501.5,474.0,541.0,67.0,492.25,514.25,626.3200000000002
560.8095933558911,551.56,6.0,1337.0,101.43454243994005,101.43454243994005,79.93919999999999,6.0,1337.0,101.43454243994005,551.56,530.0,389.0,785.0,396.0,484.75,608.75,3996.959999999999
521.340618022421,520.88,15.0,980.0,21.910399357382783,21.910399357382783,17.9648,15.0,980.0,21.910399357382783,520.88,522.0,476.0,565.0,89.0,506.0,537.75,898.24
515.4393659781914,515.14,19.0,848.0,17.564748788411407,17.564748788411407,13.74,19.0,848.0,17.564748788411407,515.14,516.0,473.0,559.0,86.0,507.25,526.75,687.0
575.5167764713727,575.28,29.0,1125.0,16.5070166898807,16.5070166898807,13.4112,29.0,1125.0,16.5070166898807,575.28,575.0,544.0,614.0,70.0,563.25,586.0,670.56
526.0172620741643,525.52,21.0,1226.0,22.8667793971954,22.8667793971954,18.7584,21.0,1226.0,22.8667793971954,525.52,527.5,475.0,570.0,95.0,511.5,543.75,937.92
523.0464797702017,522.94,25.0,627.0,10.553501788506033,10.553501788506033,8.262399999999998,25.0,627.0,10.553501788506033,522.94,524.0,501.0,550.0,49.0,517.0,528.75,413.1199999999999
502.904265243396,502.06,17.0,1144.0,29.12827492317388,29.12827492317388,23.655200000000004,17.0,1144.0,29.12827492317388,502.06,503.0,436.0,575.0,139.0,481.25,522.5,1182.7600000000002
541.1334031456569,517.72,7.0,3384.0,157.45272814403697,157.45272814403697,112.7952,7.0,3384.0,157.45272814403697,517.72,510.0,90.0,866.0,776.0,449.0,583.75,5639.76
508.7259380059169,508.6,20.0,581.0,11.319010557464816,11.319010557464816,8.728000000000002,20.0,581.0,11.319010557464818,508.6,507.0,483.0,542.0,59.0,502.0,514.5,436.4000000000001
499.63314541771547,498.92,18.0,1221.0,26.685456713348565,26.685456713348565,20.0128,18.0,1221.0,26.685456713348565,498.92,502.0,422.0,576.0,154.0,489.0,511.5,1000.64
503.66673870076966,503.2040816326531,26.0,1008.0,21.583231956952645,21.583231956952645,15.39192003331945,26.0,1008.0,21.583231956952645,503.2040816326531,503.0,456.0,583.0,127.0,490.0,514.0,754.204081632653
494.3000200322893,493.3725490196079,32.0,1978.0,30.26611434948703,30.26611434948703,23.967704728950405,32.0,1978.0,30.26611434948703,493.3725490196079,490.0,428.0,560.0,132.0,473.0,512.5,1222.3529411764707
511.9033893226338,511.2,27.0,1464.0,26.826106687329787,26.826106687329787,21.208,27.0,1464.0,26.826106687329787,511.2,510.0,454.0,587.0,133.0,491.75,529.5,1060.4
564.7898016076424,561.08,6.0,1523.0,64.62780825619882,64.62780825619882,46.71840000000002,6.0,1523.0,64.6278082561988,561.08,540.0,477.0,761.0,284.0,519.0,561.25,2335.920000000001
501.5754978066612,501.42,30.0,742.0,12.48853874558589,12.48853874558589,9.693600000000002,30.0,742.0,12.48853874558589,501.42,500.5,479.0,544.0,65.0,491.75,509.0,484.68000000000006
510.3047912767428,509.94,27.0,1135.0,19.29187393697149,19.29187393697149,15.262399999999998,27.0,1135.0,19.29187393697149,509.94,510.0,474.0,567.0,93.0,496.5,523.25,763.1199999999999
518.0116021866692,517.14,23.0,1668.0,30.037316790951888,30.037316790951888,22.0424,23.0,1668.0,30.037316790951884,517.14,515.0,421.0,580.0,159.0,503.25,535.5,1102.12
548.2112001774499,548.12,20.0,473.0,9.999279974078137,9.999279974078137,8.2544,20.0,473.0,9.999279974078132,548.12,547.5,524.0,568.0,44.0,542.25,555.75,412.72
490.1627688839698,489.22,20.0,1352.0,30.386371945331017,30.386371945331017,23.9488,20.0,1352.0,30.386371945331017,489.22,486.5,431.0,579.0,148.0,470.0,507.75,1197.44
499.945096985659,499.66,13.0,593.0,16.881480977686763,16.881480977686763,13.6992,13.0,593.0,16.881480977686763,499.66,497.0,464.0,539.0,75.0,488.25,512.75,684.96
526.8167631736716,526.7254901960785,19.0,434.0,9.806117401153118,9.806117401153118,8.208381391772397,19.0,434.0,9.806117401153118,526.7254901960785,524.0,505.0,551.0,46.0,520.5,534.0,418.62745098039227
491.1605032980564,490.44,29.0,1741.0,26.594104609856675,26.594104609856675,20.7728,29.0,1741.0,26.594104609856675,490.44,488.5,441.0,554.0,113.0,473.0,503.5,1038.64
514.6993102773696,508.62,5.0,1301.0,78.87379539492187,78.87379539492187,60.2792,5.0,1301.0,78.87379539492187,508.62,497.0,383.0,728.0,345.0,471.25,550.25,3013.96
507.9453513912693,507.56,22.0,1057.0,19.78197159031425,19.78197159031425,15.7168,22.0,1057.0,19.78197159031425,507.56,505.0,473.0,552.0,79.0,491.25,521.75,785.8399999999999
492.06296345081694,491.28,17.0,1088.0,27.747461145121008,27.747461145121008,21.7136,17.0,1088.0,27.747461145121008,491.28,487.5,437.0,557.0,120.0,477.25,508.75,1085.6799999999998
514.2392828246399,513.92,15.0,661.0,18.118322218130466,18.118322218130466,15.006400000000005,15.0,661.0,18.118322218130466,513.92,515.5,476.0,553.0,77.0,500.25,526.75,750.3200000000002
518.1180174439024,517.4,27.0,1731.0,27.267563147446825,27.267563147446825,22.56,27.0,1731.0,27.267563147446825,517.4,515.5,465.0,584.0,119.0,500.5,535.5,1128.0
536.6385934686398,536.5,19.0,539.0,12.195490970026585,12.195490970026585,9.92,19.0,539.0,12.195490970026585,536.5,535.5,513.0,568.0,55.0,526.25,545.5,496.0
518.5461406663827,518.46,22.0,460.0,9.451370271024198,9.451370271024198,7.844799999999996,22.0,460.0,9.451370271024196,518.46,519.0,498.0,535.0,37.0,511.0,526.0,392.2399999999998
531.2981648754304,530.74,21.0,1028.0,24.34732839553449,24.34732839553449,19.1,21.0,1028.0,24.34732839553449,530.74,530.5,473.0,587.0,114.0,516.0,543.0,955.0
524.9836949849014,524.28,12.0,980.0,27.172809939349296,27.172809939349296,23.2,12.0,980.0,27.172809939349296,524.28,524.0,459.0,572.0,113.0,504.75,546.75,1160.0
507.65515372351024,507.3877551020408,16.0,689.0,16.474861897820873,16.474861897820873,13.513536026655562,16.0,689.0,16.47486189782087,507.3877551020408,506.0,478.0,547.0,69.0,496.0,518.0,662.1632653061225
502.47477548629246,501.98,18.0,1078.0,22.29303927238276,22.29303927238276,17.823199999999996,18.0,1078.0,22.29303927238276,501.98,505.5,448.0,537.0,89.0,489.5,519.25,891.1599999999999
510.308010231196,509.4489795918368,16.0,1271.0,29.597339389863528,29.597339389863528,22.95626822157434,16.0,1271.0,29.597339389863528,509.4489795918368,512.0,438.0,567.0,129.0,496.0,530.0,1124.857142857143
514.8456661952201,514.62,23.0,730.0,15.2419027683554,15.2419027683554,11.2904,23.0,730.0,15.2419027683554,514.62,516.0,472.0,548.0,76.0,506.25,523.0,564.52
504.0789223921191,503.96,29.0,581.0,10.948899488076416,10.948899488076416,8.361600000000001,29.0,581.0,10.948899488076416,503.96,504.5,486.0,544.0,58.0,496.5,509.0,418.08
522.9889291371281,522.82,31.0,875.0,13.291636468095266,13.291636468095266,11.241599999999996,31.0,875.0,13.291636468095266,522.82,524.0,496.0,550.0,54.0,513.0,533.0,562.0799999999997
522.341918670137,522.08,12.0,737.0,16.539455855619916,16.539455855619916,13.366400000000004,12.0,737.0,16.53945585561992,522.08,520.0,492.0,563.0,71.0,511.0,530.5,668.3200000000002
504.7653118034162,504.58,15.0,643.0,13.676388412150336,13.676388412150336,10.6536,15.0,643.0,13.676388412150336,504.58,505.0,466.0,532.0,66.0,496.0,511.75,532.6800000000001
501.5278855656981,497.82,18.0,2089.0,60.87255210684041,60.87255210684041,41.7472,18.0,2089.0,60.8725521068404,497.82,498.0,275.0,634.0,359.0,479.0,529.25,2087.36
483.94233127512206,483.26,19.0,1042.0,25.68953872688258,25.68953872688258,21.1208,19.0,1042.0,25.68953872688258,483.26,479.5,428.0,547.0,119.0,463.25,502.0,1056.04
477.427146274696,477.32,21.0,470.0,10.11422760273863,10.11422760273863,7.9856,21.0,470.0,10.11422760273863,477.32,476.5,452.0,502.0,50.0,471.25,484.0,399.28
552.8876196841452,552.4,11.0,880.0,23.21551205552012,23.21551205552012,19.08,11.0,880.0,23.21551205552012,552.4,552.5,501.0,595.0,94.0,539.75,569.75,954.0
529.6883612087395,529.0,20.0,1258.0,26.995555189697438,26.995555189697438,21.52,20.0,1258.0,26.995555189697438,529.0,527.5,481.0,595.0,114.0,512.0,547.0,1076.0
520.63303775308,520.28,28.0,1127.0,19.169809597385157,19.169809597385157,15.24,28.0,1127.0,19.169809597385157,520.28,521.5,463.0,566.0,103.0,508.0,532.0,762.0
510.4933692027743,510.2,18.0,929.0,17.304334717058616,17.304334717058616,13.976,18.0,929.0,17.304334717058616,510.2,509.5,469.0,547.0,78.0,496.75,524.0,698.8
489.70217938028,488.8775510204082,29.0,1880.0,28.407122312619624,28.407122312619624,22.410662224073302,29.0,1880.0,28.407122312619624,488.8775510204082,489.0,451.0,566.0,115.0,466.0,504.0,1098.1224489795918
506.3492273125338,506.22,22.0,603.0,11.43903842112614,11.43903842112614,9.517600000000002,22.0,603.0,11.439038421126138,506.22,505.0,484.0,526.0,42.0,498.25,515.5,475.8800000000001
521.2729227573594,520.82,28.0,1355.0,21.72527560239455,21.72527560239455,16.867199999999997,28.0,1355.0,21.725275602394557,520.82,521.0,463.0,575.0,112.0,507.25,533.5,843.3599999999999
517.9177733965113,517.5,27.0,1161.0,20.798317239623017,20.798317239623017,17.1,27.0,1161.0,20.798317239623017,517.5,514.5,481.0,570.0,89.0,501.25,532.0,855.0
536.7220882356156,536.64,19.0,479.0,9.386714015032098,9.386714015032098,7.712000000000002,19.0,479.0,9.386714015032096,536.64,539.0,512.0,552.0,40.0,531.0,542.75,385.60000000000014
520.0819935356348,519.76,21.0,949.0,18.29815291224773,18.29815291224773,14.5696,21.0,949.0,18.29815291224773,519.76,521.0,485.0,588.0,103.0,507.25,531.0,728.48
525.2179737975463,524.84,26.0,1063.0,19.92220871289125,19.92220871289125,16.1728,26.0,1063.0,19.92220871289125,524.84,526.0,482.0,570.0,88.0,512.25,538.5,808.6399999999999
522.1664485583117,521.96,13.0,546.0,14.681907233053886,14.681907233053886,12.081599999999998,13.0,546.0,14.681907233053886,521.96,522.0,492.0,555.0,63.0,512.25,533.0,604.0799999999999
522.7070690166721,522.6,23.0,525.0,10.579224924350555,10.579224924350555,8.495999999999999,23.0,525.0,10.579224924350555,522.6,524.0,503.0,558.0,55.0,515.0,528.0,424.8
519.9022408107124,519.02,30.0,1888.0,30.27506564815343,30.27506564815343,23.6992,30.0,1888.0,30.275065648153436,519.02,522.5,436.0,593.0,157.0,501.25,535.75,1184.96
524.8327464675826,524.7450980392157,26.0,579.0,9.59134237319261,9.59134237319261,7.56401384083045,26.0,579.0,9.591342373192612,524.7450980392157,526.0,504.0,550.0,46.0,518.5,530.0,385.7647058823529
514.1204917137616,513.32,11.0,971.0,28.67852157974675,28.67852157974675,23.5584,11.0,971.0,28.67852157974675,513.32,504.5,449.0,594.0,145.0,494.25,535.75,1177.92
504.82079988843566,504.04,23.0,1572.0,28.066321454725767,28.066321454725767,22.2832,23.0,1572.0,28.06632145472577,504.04,502.0,454.0,585.0,131.0,481.5,522.25,1114.16
515.8022877033409,515.4,24.0,991.0,20.36762136333057,20.36762136333057,15.696,24.0,991.0,20.367621363330574,515.4,515.0,469.0,573.0,104.0,503.25,530.5,784.8
522.0132565366516,521.92,19.0,439.0,9.866792791986663,9.866792791986663,8.409600000000005,19.0,439.0,9.866792791986663,521.92,522.5,505.0,543.0,38.0,514.0,529.0,420.48000000000025
484.6643374542839,484.04,32.0,1617.0,24.59264930827909,24.59264930827909,18.8048,32.0,1617.0,24.59264930827909,484.04,483.5,444.0,553.0,109.0,466.25,495.75,940.24
542.1610092952093,541.4,11.0,1097.0,28.71584928223437,28.71584928223437,24.2,11.0,1097.0,28.71584928223437,541.4,541.0,482.0,600.0,118.0,521.25,564.0,1210.0
468.1241288376407,468.04,15.0,372.0,8.874592948411774,8.874592948411774,7.284800000000002,15.0,372.0,8.874592948411774,468.04,465.5,452.0,494.0,42.0,463.0,473.75,364.2400000000001
488.4396438806802,487.530612244898,20.0,1559.0,29.785698554854584,29.785698554854584,22.135776759683463,20.0,1559.0,29.785698554854584,487.530612244898,486.0,415.0,557.0,142.0,473.0,504.0,1084.6530612244896
469.4499121312092,469.34,13.0,431.0,10.157972238591714,10.157972238591714,8.234399999999996,13.0,431.0,10.157972238591716,469.34,466.0,452.0,499.0,47.0,463.0,477.0,411.7199999999998
535.0108223204462,534.86,21.0,645.0,12.702771351165856,12.702771351165856,9.98,21.0,645.0,12.702771351165856,534.86,534.5,499.0,562.0,63.0,526.25,543.0,499.0
507.28282052519774,507.1,19.0,634.0,13.618002790424152,13.618002790424152,10.624,19.0,634.0,13.618002790424152,507.1,506.5,474.0,549.0,75.0,497.25,513.0,531.2
514.6227744668904,514.08,24.0,1360.0,23.6295069775059,23.6295069775059,19.166400000000003,24.0,1360.0,23.629506977505898,514.08,512.0,460.0,564.0,104.0,496.5,529.75,958.3200000000002
517.4952824393076,517.0408163265306,21.0,1153.0,21.68321007908218,21.68321007908218,16.490628904623073,21.0,1153.0,21.68321007908218,517.0408163265306,516.0,464.0,590.0,126.0,503.0,529.0,808.0408163265306
463.1276281976708,462.92,24.0,754.0,13.866275635512226,13.866275635512226,11.529599999999997,24.0,754.0,13.866275635512228,462.92,466.5,429.0,493.0,64.0,454.25,472.75,576.4799999999998
475.88341009116925,473.14,4.0,1105.0,51.02509578628932,51.02509578628932,43.5576,4.0,1105.0,51.02509578628932,473.14,482.0,369.0,562.0,193.0,432.0,512.0,2177.88
526.4819844970956,523.88,19.0,2363.0,52.27834733424537,52.27834733424537,40.5888,19.0,2363.0,52.27834733424537,523.88,531.5,386.0,627.0,241.0,491.0,553.75,2029.44
561.7046213381666,561.2244897959183,19.0,1017.0,23.219683158135076,23.219683158135076,18.74135776759684,19.0,1017.0,23.219683158135076,561.2244897959183,567.0,505.0,608.0,103.0,546.0,578.0,918.326530612245
521.9155870444952,521.48,26.0,1334.0,21.318761690116997,21.318761690116997,17.761599999999998,26.0,1334.0,21.318761690116997,521.48,524.5,479.0,560.0,81.0,505.25,536.0,888.0799999999999
498.0570002622231,497.4693877551021,25.0,1396.0,24.186437455070006,24.186437455070006,19.64098292378176,25.0,1396.0,24.186437455070006,497.4693877551021,493.0,438.0,563.0,125.0,481.0,514.0,962.408163265306
473.3438073958505,472.76,16.0,990.0,23.501965875219884,23.501965875219884,18.2176,16.0,990.0,23.501965875219884,472.76,476.5,408.0,511.0,103.0,460.5,488.0,910.88
518.0201347438148,517.94,24.0,474.0,9.111333601619467,9.111333601619467,7.514399999999987,24.0,474.0,9.111333601619467,517.94,519.0,495.0,535.0,40.0,511.0,525.0,375.71999999999935
516.9617780842216,516.2,29.0,1700.0,28.054233192158364,28.054233192158364,22.84,29.0,1700.0,28.054233192158364,516.2,516.0,438.0,562.0,124.0,501.5,542.25,1142.0
523.8258871037208,523.64,12.0,544.0,13.95386684758028,13.95386684758028,11.6656,12.0,544.0,13.95386684758028,523.64,522.5,491.0,551.0,60.0,516.0,534.5,583.28
511.03214883494087,510.6326530612245,23.0,1093.0,20.20274165830684,20.20274165830684,16.86047480216577,23.0,1093.0,20.20274165830684,510.6326530612245,508.0,474.0,559.0,85.0,495.0,525.0,826.1632653061226
529.6184286823864,529.12,20.0,1044.0,22.971843635198287,22.971843635198287,19.0752,20.0,1044.0,22.971843635198287,529.12,532.0,486.0,591.0,105.0,511.25,544.75,953.76
515.1659732552218,514.94,25.0,870.0,15.257011502912356,15.257011502912356,12.02,25.0,870.0,15.257011502912356,514.94,514.5,482.0,550.0,68.0,504.0,525.25,601.0
522.5865095847768,522.14,23.0,1109.0,21.598157328809325,21.598157328809325,17.6144,23.0,1109.0,21.598157328809325,522.14,524.5,483.0,580.0,97.0,504.25,535.0,880.72
523.9075490962122,523.8,23.0,601.0,10.615083607772478,10.615083607772478,8.456000000000003,23.0,601.0,10.61508360777248,523.8,525.0,503.0,550.0,47.0,517.0,530.0,422.8000000000002
512.1649734216505,511.64,21.0,1302.0,23.18340785993293,23.18340785993293,18.32,21.0,1302.0,23.18340785993293,511.64,511.5,462.0,571.0,109.0,496.25,525.0,916.0
511.3741682955837,511.06,21.0,900.0,17.922510984792282,17.922510984792282,14.94,21.0,900.0,17.922510984792282,511.06,510.5,477.0,546.0,69.0,499.0,522.0,747.0
523.761472428051,522.96,30.0,1832.0,28.964088109243143,28.964088109243143,23.8384,30.0,1832.0,28.964088109243143,522.96,520.0,470.0,587.0,117.0,501.25,544.75,1191.92
517.4068611837304,517.3,23.0,622.0,10.515227054134398,10.515227054134398,8.66,23.0,622.0,10.515227054134398,517.3,517.5,503.0,547.0,44.0,508.0,525.25,433.0
522.7281894063109,522.52,30.0,924.0,14.7515965237665,14.7515965237665,12.377600000000005,30.0,924.0,14.751596523766503,522.52,524.0,487.0,550.0,63.0,513.0,533.0,618.8800000000001
486.7738900146556,486.42,19.0,928.0,18.55811412832672,18.55811412832672,15.34,19.0,928.0,18.55811412832672,486.42,486.0,448.0,531.0,83.0,471.5,500.0,767.0
514.8797917961045,514.32,26.0,1460.0,24.002866495483406,24.002866495483406,19.62560000000001,26.0,1460.0,24.00286649548341,514.32,513.0,469.0,565.0,96.0,500.0,527.75,981.2800000000002
522.2054002018746,521.48,32.0,1826.0,27.515261219912123,27.515261219912123,23.7824,32.0,1826.0,27.515261219912123,521.48,528.0,465.0,568.0,103.0,496.75,542.5,1189.12
478.7405978189024,478.24,19.0,1057.0,21.887494146201384,21.887494146201384,17.5792,19.0,1057.0,21.887494146201384,478.24,474.5,418.0,531.0,113.0,461.75,494.25,878.96
512.3363252826034,512.1836734693877,15.0,468.0,12.505792077482116,12.505792077482116,10.391503540191586,15.0,468.0,12.505792077482116,512.1836734693877,510.0,488.0,542.0,54.0,503.0,521.0,509.1836734693877
521.2888834418013,520.66,29.0,1461.0,25.598132744401493,25.598132744401493,19.6464,29.0,1461.0,25.598132744401493,520.66,519.5,453.0,580.0,127.0,503.25,535.5,982.32
499.724183925493,499.18,19.0,972.0,23.314965151164177,23.314965151164177,19.1184,19.0,972.0,23.314965151164177,499.18,502.0,442.0,559.0,117.0,482.5,515.0,955.9199999999998
502.1307001170114,500.04,13.0,1579.0,45.773774150707744,45.773774150707744,38.0032,13.0,1579.0,45.773774150707744,500.04,489.5,396.0,591.0,195.0,470.5,530.75,1900.16
509.8778677291259,509.56,29.0,1073.0,18.00128884274679,18.00128884274679,14.4096,29.0,1073.0,18.00128884274679,509.56,506.5,482.0,555.0,73.0,496.25,517.75,720.48
507.8923901772894,507.52,29.0,1072.0,19.445554761950092,19.445554761950092,16.2016,29.0,1072.0,19.445554761950092,507.52,505.0,473.0,547.0,74.0,492.25,522.0,810.0799999999999
520.1323869939267,519.82,23.0,909.0,18.02408388795392,18.02408388795392,13.881599999999992,23.0,909.0,18.02408388795392,519.82,521.0,474.0,562.0,88.0,511.0,529.75,694.0799999999997
530.2011316472268,527.44,15.0,1174.0,54.03967431434057,54.03967431434057,39.857600000000005,15.0,1174.0,54.03967431434057,527.44,526.5,403.0,662.0,259.0,506.25,559.25,1992.88
507.9841336104898,507.8,19.0,629.0,13.676256797823006,13.676256797823006,10.4,19.0,629.0,13.676256797823008,507.8,507.5,474.0,549.0,75.0,499.25,513.75,520.0
532.821076910439,532.14,15.0,1023.0,26.93177305711601,26.93177305711601,22.0312,15.0,1023.0,26.93177305711601,532.14,529.5,481.0,600.0,119.0,512.0,551.75,1101.56
489.6012050638764,488.9,29.0,1735.0,26.19408330138697,26.19408330138697,20.816,29.0,1735.0,26.19408330138697,488.9,486.0,445.0,554.0,109.0,468.0,503.5,1040.8
488.3798521642759,487.72,24.0,1334.0,25.378762775202414,25.378762775202414,19.6624,24.0,1334.0,25.378762775202414,487.72,489.0,435.0,564.0,129.0,468.5,503.0,983.12
503.6924474643759,503.1428571428572,21.0,1142.0,23.523327544705708,23.523327544705708,19.27696793002915,21.0,1142.0,23.523327544705708,503.1428571428572,506.0,448.0,546.0,98.0,488.0,521.0,944.5714285714284
501.4397271856309,500.88,19.0,1171.0,23.685978974912565,23.685978974912565,20.0352,19.0,1171.0,23.685978974912565,500.88,499.0,465.0,554.0,89.0,481.25,518.0,1001.76
549.5652827462812,548.64,21.0,1029.0,31.87711404754201,31.87711404754201,22.84,21.0,1029.0,31.87711404754201,548.64,549.0,449.0,638.0,189.0,530.0,559.5,1142.0
509.6848045606225,509.48,21.0,802.0,14.44747728844036,14.44747728844036,11.7792,21.0,802.0,14.44747728844036,509.48,508.5,469.0,540.0,71.0,499.0,522.0,588.96
502.6518079147831,501.96,19.0,1312.0,26.362822307181,26.362822307181,21.0,19.0,1312.0,26.362822307181,501.96,501.5,438.0,559.0,121.0,483.25,525.5,1050.0
525.284989315324,521.8,7.0,1439.0,60.40761541395257,60.40761541395257,51.352,7.0,1439.0,60.40761541395257,521.8,533.5,394.0,619.0,225.0,468.5,572.5,2567.6000000000004
545.8384862404121,545.4489795918367,18.0,899.0,20.617073590802438,20.617073590802438,16.93377759266972,18.0,899.0,20.617073590802438,545.4489795918367,549.0,490.0,593.0,103.0,530.0,559.0,829.7551020408163
519.7827430763741,519.38,25.0,1227.0,20.45765382442473,20.45765382442473,16.6448,25.0,1227.0,20.45765382442473,519.38,521.5,472.0,553.0,81.0,505.0,535.75,832.24
515.9512119001413,515.4489795918367,29.0,1306.0,22.759668252388195,22.759668252388195,18.03165347771762,29.0,1306.0,22.759668252388195,515.4489795918367,516.0,461.0,564.0,103.0,505.0,529.0,883.5510204081633
507.4160029009728,506.64,32.0,1684.0,28.05192328522235,28.05192328522235,21.567999999999994,32.0,1684.0,28.051923285222347,506.64,504.0,450.0,574.0,124.0,490.5,520.0,1078.3999999999996
537.8693149827382,537.4,23.0,1138.0,22.464193731358357,22.464193731358357,17.744,23.0,1138.0,22.464193731358357,537.4,538.5,481.0,584.0,103.0,523.25,554.5,887.2
563.2159976421125,559.3,10.0,1276.0,66.30060331550536,66.30060331550536,53.268,10.0,1276.0,66.30060331550536,559.3,546.0,460.0,719.0,259.0,510.75,598.75,2663.4
511.6855479686719,511.1,22.0,1364.0,24.472229158783225,24.472229158783225,19.984,22.0,1364.0,24.472229158783225,511.1,510.0,460.0,564.0,104.0,493.25,528.75,999.2
513.4557429808337,513.0,19.0,1028.0,21.62868465718616,21.62868465718616,17.52,19.0,1028.0,21.62868465718616,513.0,514.0,461.0,553.0,92.0,499.25,526.75,876.0
511.5313871112896,511.28,27.0,930.0,16.035011693166922,16.035011693166922,11.8912,27.0,930.0,16.035011693166922,511.28,510.5,477.0,567.0,90.0,504.0,521.75,594.56
498.1637080318075,497.52,17.0,963.0,25.316587447758437,25.316587447758437,21.0992,17.0,963.0,25.316587447758437,497.52,499.5,442.0,552.0,110.0,479.0,515.0,1054.96
520.0208841960099,519.12,26.0,1876.0,30.596496531465817,30.596496531465817,24.3904,26.0,1876.0,30.59649653146582,519.12,522.5,436.0,593.0,157.0,496.0,539.75,1219.52
537.5551878644648,517.26,6.0,2853.0,146.3136097565773,146.3136097565773,101.312,6.0,2853.0,146.31360975657734,517.26,492.5,271.0,1022.0,751.0,445.75,573.25,5065.6
509.23962925129854,508.72,24.0,1326.0,22.999165202241574,22.999165202241574,18.96,24.0,1326.0,22.99916520224158,508.72,508.5,460.0,554.0,94.0,493.25,523.75,948.0
446.39469082864326,445.42,21.0,1396.0,29.48293743845752,29.48293743845752,22.350400000000004,21.0,1396.0,29.48293743845752,445.42,441.0,394.0,538.0,144.0,424.0,457.75,1117.5200000000002
522.5219421230079,522.38,16.0,532.0,12.17848923306992,12.17848923306992,9.7856,16.0,532.0,12.17848923306992,522.38,521.0,495.0,550.0,55.0,515.0,530.0,489.28
522.9575126145527,522.48,25.0,1250.0,22.34299890345967,22.34299890345967,17.5392,25.0,1250.0,22.34299890345967,522.48,522.0,473.0,587.0,114.0,508.25,534.5,876.96
515.7541080786464,515.62,19.0,462.0,11.760765281222136,11.760765281222136,9.7952,19.0,462.0,11.760765281222136,515.62,516.0,490.0,542.0,52.0,507.0,523.0,489.76
511.9638463798005,511.78,25.0,777.0,13.719023288849684,13.719023288849684,11.0112,25.0,777.0,13.719023288849684,511.78,510.0,488.0,550.0,62.0,501.25,520.5,550.56
487.7181973230033,487.4,18.0,880.0,17.614766532656628,17.614766532656628,13.791999999999998,18.0,880.0,17.614766532656624,487.4,486.0,434.0,523.0,89.0,479.25,501.25,689.5999999999999
546.3830158414517,542.12,4.0,1535.0,68.11978860801023,68.11978860801023,54.2384,4.0,1535.0,68.11978860801023,542.12,522.5,433.0,722.0,289.0,492.5,564.0,2711.92
493.168916295421,492.98,23.0,744.0,13.649161146385518,13.649161146385518,10.94,23.0,744.0,13.649161146385516,492.98,492.5,467.0,523.0,56.0,483.0,500.75,547.0
489.9576408179776,489.7142857142857,27.0,748.0,15.440471601130133,15.440471601130133,12.291545189504372,27.0,748.0,15.440471601130133,489.7142857142857,490.0,453.0,530.0,77.0,481.0,502.0,602.2857142857142
521.0862884398322,520.84,34.0,1043.0,16.0191884938033,16.0191884938033,12.7536,34.0,1043.0,16.0191884938033,520.84,519.5,480.0,551.0,71.0,511.25,533.5,637.6800000000001
521.2995492037184,520.9,23.0,1079.0,20.406126531020043,20.406126531020043,16.7,23.0,1079.0,20.406126531020043,520.9,522.0,482.0,564.0,82.0,504.25,536.0,835.0
513.154830436195,512.52,23.0,1380.0,25.51724123019571,25.51724123019571,20.4624,23.0,1380.0,25.51724123019571,512.52,511.5,457.0,564.0,107.0,496.0,529.75,1023.12
563.7689420321059,562.54,13.0,1145.0,37.20441371665464,37.20441371665464,31.06,13.0,1145.0,37.20441371665464,562.54,565.0,482.0,641.0,159.0,528.5,588.25,1553.0
494.1505802064461,494.0204081632653,22.0,574.0,11.341615253926427,11.341615253926427,9.32944606413994,22.0,574.0,11.341615253926427,494.0204081632653,492.0,471.0,529.0,58.0,485.0,502.0,457.1428571428571
511.9183333306202,510.74,12.0,1387.0,34.71357659475612,34.71357659475612,28.232,12.0,1387.0,34.71357659475612,510.74,518.0,426.0,575.0,149.0,488.0,534.0,1411.6
555.7281709613073,555.52,20.0,712.0,15.20952333243879,15.20952333243879,12.5392,20.0,712.0,15.209523332438792,555.52,557.0,523.0,588.0,65.0,544.0,565.75,626.96
534.2734131509822,534.16,15.0,499.0,11.007924418345176,11.007924418345176,9.3136,15.0,499.0,11.007924418345176,534.16,537.0,508.0,552.0,44.0,526.25,542.0,465.68000000000006
497.4553246272473,497.24,17.0,639.0,14.634971814117034,14.634971814117034,11.48,17.0,639.0,14.634971814117032,497.24,497.5,473.0,534.0,61.0,488.0,503.0,574.0
562.2373520142539,561.96,21.0,734.0,17.657814134257954,17.657814134257954,14.681599999999998,21.0,734.0,17.657814134257954,561.96,562.0,525.0,600.0,75.0,548.25,573.5,734.0799999999999
499.5425507401747,499.04,23.0,1140.0,22.401749931645966,22.401749931645966,18.126400000000004,23.0,1140.0,22.401749931645966,499.04,496.0,452.0,552.0,100.0,485.0,516.0,906.3200000000002
